k,Energy (eV)
0.0,-10.420818
0.02603,-10.435785
0.05206,-10.450751
0.0781,-10.464357
0.10413,-10.479323
0.13016,-10.492929
0.15619,-10.505175
0.18223,-10.51878
0.20826,-10.531025
0.23429,-10.543271
0.26032,-10.554155
0.28636,-10.56504
0.31239,-10.575924
0.33842,-10.585448
0.36445,-10.594973
0.39049,-10.604496
0.41652,-10.61266
0.44255,-10.619463
0.46858,-10.626266
0.49462,-10.633068
0.52065,-10.639872
0.54668,-10.643953
0.57271,-10.649396
0.59875,-10.653478
0.62478,-10.656199
0.65081,-10.658919
0.67684,-10.661641
0.70288,-10.663001
0.72891,-10.664362
0.75494,-10.664362
,
,
0.0,-10.420818
0.02603,-10.404491
0.05206,-10.389524
0.0781,-10.373199
0.10413,-10.356871
0.13016,-10.340544
0.15619,-10.322857
0.18223,-10.306529
0.20826,-10.290203
0.23429,-10.272515
0.26032,-10.256188
0.28636,-10.239861
0.31239,-10.227615
0.33842,-10.223534
0.36445,-10.219453
0.39049,-10.215371
0.41652,-10.211289
0.44255,-10.205847
0.46858,-10.201765
0.49462,-10.196322
0.52065,-10.192241
0.54668,-10.18816
0.57271,-10.182717
0.59875,-10.179996
0.62478,-10.175914
0.65081,-10.173193
0.67684,-10.170471
0.70288,-10.16775
0.72891,-10.16775
0.75494,-10.166389
,
,
0.0,-10.250746
0.02603,-10.250746
0.05206,-10.250746
0.0781,-10.249385
0.10413,-10.249385
0.13016,-10.248025
0.15619,-10.245304
0.18223,-10.243943
0.20826,-10.241222
0.23429,-10.238501
0.26032,-10.234419
0.28636,-10.231698
0.31239,-10.222174
0.33842,-10.215371
0.36445,-10.211289
0.39049,-10.205847
0.41652,-10.200404
0.44255,-10.194962
0.46858,-10.18952
0.49462,-10.182717
0.52065,-10.177275
0.54668,-10.171832
0.57271,-10.166389
0.59875,-10.160948
0.62478,-10.155505
0.65081,-10.151423
0.67684,-10.147342
0.70288,-10.14462
0.72891,-10.14326
0.75494,-10.141899
,
,
0.0,-10.250746
0.02603,-10.250746
0.05206,-10.249385
0.0781,-10.248025
0.10413,-10.246664
0.13016,-10.245304
0.15619,-10.242582
0.18223,-10.239861
0.20826,-10.237141
0.23429,-10.233058
0.26032,-10.228976
0.28636,-10.224895
0.31239,-10.220813
0.33842,-10.205847
0.36445,-10.18952
0.39049,-10.174553
0.41652,-10.159587
0.44255,-10.14462
0.46858,-10.131015
0.49462,-10.117409
0.52065,-10.106524
0.54668,-10.097
0.57271,-10.087476
0.59875,-10.077952
0.62478,-10.069789
0.65081,-10.064346
0.67684,-10.060265
0.70288,-10.056183
0.72891,-10.054823
0.75494,-10.054823
,
,
0.0,-10.204486
0.02603,-10.204486
0.05206,-10.203125
0.0781,-10.201765
0.10413,-10.200404
0.13016,-10.197683
0.15619,-10.194962
0.18223,-10.192241
0.20826,-10.18816
0.23429,-10.184077
0.26032,-10.178635
0.28636,-10.173193
0.31239,-10.16775
0.33842,-10.162309
0.36445,-10.155505
0.39049,-10.148703
0.41652,-10.140538
0.44255,-10.132376
0.46858,-10.124212
0.49462,-10.116048
0.52065,-10.106524
0.54668,-10.097
0.57271,-10.087476
0.59875,-10.077952
0.62478,-10.068428
0.65081,-10.058904
0.67684,-10.04938
0.70288,-10.041217
0.72891,-10.034413
0.75494,-10.031693
,
,
0.0,-10.204486
0.02603,-10.204486
0.05206,-10.203125
0.0781,-10.201765
0.10413,-10.200404
0.13016,-10.197683
0.15619,-10.194962
0.18223,-10.192241
0.20826,-10.18816
0.23429,-10.184077
0.26032,-10.178635
0.28636,-10.173193
0.31239,-10.16775
0.33842,-10.162309
0.36445,-10.155505
0.39049,-10.148703
0.41652,-10.140538
0.44255,-10.132376
0.46858,-10.124212
0.49462,-10.116048
0.52065,-10.105165
0.54668,-10.094279
0.57271,-10.084755
0.59875,-10.076591
0.62478,-10.068428
0.65081,-10.058904
0.67684,-10.04938
0.70288,-10.041217
0.72891,-10.034413
0.75494,-10.031693
,
,
0.0,-9.867063
0.02603,-9.871143
0.05206,-9.873865
0.0781,-9.879308
0.10413,-9.88611
0.13016,-9.892914
0.15619,-9.899716
0.18223,-9.906519
0.20826,-9.913322
0.23429,-9.918765
0.26032,-9.925567
0.28636,-9.931009
0.31239,-9.936452
0.33842,-9.941895
0.36445,-9.947337
0.39049,-9.951418
0.41652,-9.9555
0.44255,-9.959581
0.46858,-9.963663
0.49462,-9.966385
0.52065,-9.969106
0.54668,-9.970467
0.57271,-9.971828
0.59875,-9.973188
0.62478,-9.97999
0.65081,-9.985433
0.67684,-9.990875
0.70288,-9.993596
0.72891,-9.996318
0.75494,-9.996318
,
,
0.0,-9.867063
0.02603,-9.867063
0.05206,-9.873865
0.0781,-9.877947
0.10413,-9.882029
0.13016,-9.88611
0.15619,-9.890192
0.18223,-9.894274
0.20826,-9.896995
0.23429,-9.901076
0.26032,-9.903798
0.28636,-9.906519
0.31239,-9.909241
0.33842,-9.911962
0.36445,-9.914682
0.39049,-9.916043
0.41652,-9.917404
0.44255,-9.925567
0.46858,-9.933731
0.49462,-9.943255
0.52065,-9.951418
0.54668,-9.959581
0.57271,-9.966385
0.59875,-9.973188
0.62478,-9.974548
0.65081,-9.973188
0.67684,-9.973188
0.70288,-9.971828
0.72891,-9.977269
0.75494,-9.97999
,
,
0.0,-9.86162
0.02603,-9.862981
0.05206,-9.86026
0.0781,-9.856177
0.10413,-9.853456
0.13016,-9.850736
0.15619,-9.849375
0.18223,-9.853456
0.20826,-9.857538
0.23429,-9.864342
0.26032,-9.869783
0.28636,-9.876586
0.31239,-9.88475
0.33842,-9.892914
0.36445,-9.901076
0.39049,-9.909241
0.41652,-9.917404
0.44255,-9.917404
0.46858,-9.917404
0.49462,-9.917404
0.52065,-9.914682
0.54668,-9.914682
0.57271,-9.922846
0.59875,-9.929648
0.62478,-9.937813
0.65081,-9.950057
0.67684,-9.960942
0.70288,-9.970467
0.72891,-9.977269
0.75494,-9.97999
,
,
0.0,-9.86162
0.02603,-9.856177
0.05206,-9.852096
0.0781,-9.849375
0.10413,-9.848014
0.13016,-9.848014
0.15619,-9.848014
0.18223,-9.845293
0.20826,-9.842571
0.23429,-9.83985
0.26032,-9.83713
0.28636,-9.83577
0.31239,-9.83985
0.33842,-9.848014
0.36445,-9.856177
0.39049,-9.864342
0.41652,-9.872504
0.44255,-9.880668
0.46858,-9.890192
0.49462,-9.898355
0.52065,-9.906519
0.54668,-9.913322
0.57271,-9.913322
0.59875,-9.925567
0.62478,-9.937813
0.65081,-9.950057
0.67684,-9.960942
0.70288,-9.970467
0.72891,-9.970467
0.75494,-9.970467
,
,
0.0,-9.788148
0.02603,-9.789509
0.05206,-9.79087
0.0781,-9.792231
0.10413,-9.794951
0.13016,-9.799033
0.15619,-9.803115
0.18223,-9.807197
0.20826,-9.812639
0.23429,-9.818081
0.26032,-9.824884
0.28636,-9.831687
0.31239,-9.834409
0.33842,-9.831687
0.36445,-9.830327
0.39049,-9.830327
0.41652,-9.841211
0.44255,-9.853456
0.46858,-9.864342
0.49462,-9.876586
0.52065,-9.888832
0.54668,-9.901076
0.57271,-9.913322
0.59875,-9.925567
0.62478,-9.936452
0.65081,-9.943255
0.67684,-9.948697
0.70288,-9.954139
0.72891,-9.956861
0.75494,-9.958221
,
,
0.0,-9.788148
0.02603,-9.786788
0.05206,-9.785428
0.0781,-9.784067
0.10413,-9.781346
0.13016,-9.777265
0.15619,-9.771822
0.18223,-9.773182
0.20826,-9.778625
0.23429,-9.784067
0.26032,-9.789509
0.28636,-9.796312
0.31239,-9.803115
0.33842,-9.811279
0.36445,-9.819442
0.39049,-9.830327
0.41652,-9.841211
0.44255,-9.853456
0.46858,-9.864342
0.49462,-9.876586
0.52065,-9.888832
0.54668,-9.901076
0.57271,-9.909241
0.59875,-9.905158
0.62478,-9.901076
0.65081,-9.896995
0.67684,-9.891553
0.70288,-9.887471
0.72891,-9.88611
0.75494,-9.88475
,
,
0.0,-9.74325
0.02603,-9.745971
0.05206,-9.750052
0.0781,-9.754134
0.10413,-9.758216
0.13016,-9.763658
0.15619,-9.76774
0.18223,-9.773182
0.20826,-9.778625
0.23429,-9.784067
0.26032,-9.789509
0.28636,-9.796312
0.31239,-9.803115
0.33842,-9.811279
0.36445,-9.819442
0.39049,-9.828966
0.41652,-9.827605
0.44255,-9.827605
0.46858,-9.826245
0.49462,-9.824884
0.52065,-9.824884
0.54668,-9.826245
0.57271,-9.828966
0.59875,-9.830327
0.62478,-9.833048
0.65081,-9.834409
0.67684,-9.83577
0.70288,-9.83577
0.72891,-9.83713
0.75494,-9.83713
,
,
0.0,-9.74325
0.02603,-9.745971
0.05206,-9.750052
0.0781,-9.754134
0.10413,-9.758216
0.13016,-9.763658
0.15619,-9.76774
0.18223,-9.766379
0.20826,-9.759576
0.23429,-9.762298
0.26032,-9.770461
0.28636,-9.778625
0.31239,-9.785428
0.33842,-9.793591
0.36445,-9.799033
0.39049,-9.804476
0.41652,-9.809918
0.44255,-9.813999
0.46858,-9.816721
0.49462,-9.820803
0.52065,-9.823524
0.54668,-9.826245
0.57271,-9.828966
0.59875,-9.830327
0.62478,-9.833048
0.65081,-9.834409
0.67684,-9.83577
0.70288,-9.83577
0.72891,-9.83713
0.75494,-9.83713
,
,
0.0,-9.741889
0.02603,-9.740528
0.05206,-9.739167
0.0781,-9.739167
0.10413,-9.739167
0.13016,-9.741889
0.15619,-9.74461
0.18223,-9.750052
0.20826,-9.755495
0.23429,-9.762298
0.26032,-9.770461
0.28636,-9.778625
0.31239,-9.785428
0.33842,-9.793591
0.36445,-9.799033
0.39049,-9.804476
0.41652,-9.809918
0.44255,-9.813999
0.46858,-9.816721
0.49462,-9.820803
0.52065,-9.823524
0.54668,-9.823524
0.57271,-9.823524
0.59875,-9.822163
0.62478,-9.822163
0.65081,-9.822163
0.67684,-9.820803
0.70288,-9.820803
0.72891,-9.820803
0.75494,-9.820803
,
,
0.0,-9.741889
0.02603,-9.740528
0.05206,-9.739167
0.0781,-9.739167
0.10413,-9.739167
0.13016,-9.741889
0.15619,-9.74461
0.18223,-9.750052
0.20826,-9.755495
0.23429,-9.752774
0.26032,-9.745971
0.28636,-9.737807
0.31239,-9.739167
0.33842,-9.741889
0.36445,-9.74461
0.39049,-9.745971
0.41652,-9.748692
0.44255,-9.751413
0.46858,-9.755495
0.49462,-9.758216
0.52065,-9.762298
0.54668,-9.766379
0.57271,-9.770461
0.59875,-9.775904
0.62478,-9.779985
0.65081,-9.785428
0.67684,-9.789509
0.70288,-9.793591
0.72891,-9.796312
0.75494,-9.797672
,
,
0.0,-9.710595
0.02603,-9.713317
0.05206,-9.717399
0.0781,-9.720119
0.10413,-9.722841
0.13016,-9.725562
0.15619,-9.726923
0.18223,-9.729644
0.20826,-9.731005
0.23429,-9.733726
0.26032,-9.735085
0.28636,-9.737807
0.31239,-9.731005
0.33842,-9.722841
0.36445,-9.714677
0.39049,-9.707874
0.41652,-9.699711
0.44255,-9.692908
0.46858,-9.686105
0.49462,-9.679302
0.52065,-9.673861
0.54668,-9.667057
0.57271,-9.662975
0.59875,-9.657533
0.62478,-9.653451
0.65081,-9.649369
0.67684,-9.646648
0.70288,-9.645288
0.72891,-9.643928
0.75494,-9.642567
,
,
0.0,-9.710595
0.02603,-9.707874
0.05206,-9.703793
0.0781,-9.699711
0.10413,-9.695629
0.13016,-9.691547
0.15619,-9.686105
0.18223,-9.682023
0.20826,-9.676581
0.23429,-9.671139
0.26032,-9.667057
0.28636,-9.661614
0.31239,-9.656172
0.33842,-9.65073
0.36445,-9.645288
0.39049,-9.639846
0.41652,-9.634403
0.44255,-9.628961
0.46858,-9.624879
0.49462,-9.619437
0.52065,-9.615355
0.54668,-9.611274
0.57271,-9.607191
0.59875,-9.603109
0.62478,-9.608552
0.65081,-9.612634
0.67684,-9.615355
0.70288,-9.618076
0.72891,-9.619437
0.75494,-9.619437
,
,
0.0,-9.603109
0.02603,-9.603109
0.05206,-9.60447
0.0781,-9.60447
0.10413,-9.605831
0.13016,-9.605831
0.15619,-9.605831
0.18223,-9.60447
0.20826,-9.603109
0.23429,-9.600389
0.26032,-9.597667
0.28636,-9.594947
0.31239,-9.592225
0.33842,-9.589504
0.36445,-9.588143
0.39049,-9.585423
0.41652,-9.584062
0.44255,-9.581341
0.46858,-9.581341
0.49462,-9.57998
0.52065,-9.585423
0.54668,-9.592225
0.57271,-9.597667
0.59875,-9.603109
0.62478,-9.600389
0.65081,-9.597667
0.67684,-9.594947
0.70288,-9.593586
0.72891,-9.592225
0.75494,-9.592225
,
,
0.0,-9.603109
0.02603,-9.603109
0.05206,-9.60447
0.0781,-9.60447
0.10413,-9.605831
0.13016,-9.605831
0.15619,-9.605831
0.18223,-9.60447
0.20826,-9.603109
0.23429,-9.600389
0.26032,-9.597667
0.28636,-9.594947
0.31239,-9.592225
0.33842,-9.589504
0.36445,-9.588143
0.39049,-9.585423
0.41652,-9.584062
0.44255,-9.581341
0.46858,-9.581341
0.49462,-9.57998
0.52065,-9.578619
0.54668,-9.578619
0.57271,-9.577259
0.59875,-9.577259
0.62478,-9.577259
0.65081,-9.575898
0.67684,-9.575898
0.70288,-9.575898
0.72891,-9.575898
0.75494,-9.575898
,
,
0.0,-9.57998
0.02603,-9.578619
0.05206,-9.577259
0.0781,-9.575898
0.10413,-9.573176
0.13016,-9.571816
0.15619,-9.569096
0.18223,-9.566375
0.20826,-9.565014
0.23429,-9.562293
0.26032,-9.560932
0.28636,-9.559571
0.31239,-9.55685
0.33842,-9.55549
0.36445,-9.55549
0.39049,-9.55549
0.41652,-9.55685
0.44255,-9.563653
0.46858,-9.571816
0.49462,-9.578619
0.52065,-9.578619
0.54668,-9.578619
0.57271,-9.577259
0.59875,-9.577259
0.62478,-9.577259
0.65081,-9.575898
0.67684,-9.575898
0.70288,-9.575898
0.72891,-9.575898
0.75494,-9.575898
,
,
0.0,-9.57998
0.02603,-9.578619
0.05206,-9.577259
0.0781,-9.575898
0.10413,-9.573176
0.13016,-9.571816
0.15619,-9.569096
0.18223,-9.566375
0.20826,-9.565014
0.23429,-9.562293
0.26032,-9.560932
0.28636,-9.559571
0.31239,-9.55685
0.33842,-9.55549
0.36445,-9.552769
0.39049,-9.551408
0.41652,-9.55549
0.44255,-9.55549
0.46858,-9.55549
0.49462,-9.55549
0.52065,-9.55685
0.54668,-9.55685
0.57271,-9.55685
0.59875,-9.55685
0.62478,-9.55685
0.65081,-9.55685
0.67684,-9.55821
0.70288,-9.55821
0.72891,-9.55821
0.75494,-9.55821
,
,
0.0,-9.545965
0.02603,-9.548686
0.05206,-9.551408
0.0781,-9.552769
0.10413,-9.554129
0.13016,-9.55549
0.15619,-9.55549
0.18223,-9.55549
0.20826,-9.55549
0.23429,-9.55549
0.26032,-9.55549
0.28636,-9.55549
0.31239,-9.55549
0.33842,-9.55549
0.36445,-9.552769
0.39049,-9.551408
0.41652,-9.548686
0.44255,-9.545965
0.46858,-9.544604
0.49462,-9.541883
0.52065,-9.540524
0.54668,-9.537803
0.57271,-9.536442
0.59875,-9.535081
0.62478,-9.535081
0.65081,-9.53372
0.67684,-9.53372
0.70288,-9.53372
0.72891,-9.53372
0.75494,-9.53372
,
,
0.0,-9.545965
0.02603,-9.544604
0.05206,-9.541883
0.0781,-9.540524
0.10413,-9.540524
0.13016,-9.539163
0.15619,-9.537803
0.18223,-9.536442
0.20826,-9.53372
0.23429,-9.53236
0.26032,-9.529638
0.28636,-9.528278
0.31239,-9.529638
0.33842,-9.536442
0.36445,-9.543244
0.39049,-9.550047
0.41652,-9.548686
0.44255,-9.545965
0.46858,-9.544604
0.49462,-9.541883
0.52065,-9.540524
0.54668,-9.537803
0.57271,-9.536442
0.59875,-9.535081
0.62478,-9.535081
0.65081,-9.53372
0.67684,-9.53372
0.70288,-9.53372
0.72891,-9.53372
0.75494,-9.53372
,
,
0.0,-9.541883
0.02603,-9.541883
0.05206,-9.541883
0.0781,-9.540524
0.10413,-9.540524
0.13016,-9.539163
0.15619,-9.537803
0.18223,-9.536442
0.20826,-9.53372
0.23429,-9.53236
0.26032,-9.529638
0.28636,-9.528278
0.31239,-9.525557
0.33842,-9.524196
0.36445,-9.524196
0.39049,-9.525557
0.41652,-9.526917
0.44255,-9.528278
0.46858,-9.528278
0.49462,-9.529638
0.52065,-9.530999
0.54668,-9.530999
0.57271,-9.53236
0.59875,-9.53236
0.62478,-9.53372
0.65081,-9.53372
0.67684,-9.53236
0.70288,-9.53236
0.72891,-9.53236
0.75494,-9.53236
,
,
0.0,-9.541883
0.02603,-9.541883
0.05206,-9.541883
0.0781,-9.537803
0.10413,-9.535081
0.13016,-9.53236
0.15619,-9.529638
0.18223,-9.526917
0.20826,-9.522836
0.23429,-9.521475
0.26032,-9.518753
0.28636,-9.524196
0.31239,-9.525557
0.33842,-9.524196
0.36445,-9.524196
0.39049,-9.525557
0.41652,-9.526917
0.44255,-9.528278
0.46858,-9.528278
0.49462,-9.529638
0.52065,-9.530999
0.54668,-9.530999
0.57271,-9.53236
0.59875,-9.53236
0.62478,-9.53372
0.65081,-9.53372
0.67684,-9.53236
0.70288,-9.53236
0.72891,-9.53236
0.75494,-9.53236
,
,
0.0,-9.506509
0.02603,-9.506509
0.05206,-9.506509
0.0781,-9.50787
0.10413,-9.50923
0.13016,-9.510591
0.15619,-9.511951
0.18223,-9.513311
0.20826,-9.514672
0.23429,-9.516032
0.26032,-9.518753
0.28636,-9.520114
0.31239,-9.521475
0.33842,-9.521475
0.36445,-9.521475
0.39049,-9.518753
0.41652,-9.516032
0.44255,-9.513311
0.46858,-9.514672
0.49462,-9.516032
0.52065,-9.517393
0.54668,-9.518753
0.57271,-9.518753
0.59875,-9.520114
0.62478,-9.521475
0.65081,-9.522836
0.67684,-9.522836
0.70288,-9.524196
0.72891,-9.524196
0.75494,-9.524196
,
,
0.0,-9.506509
0.02603,-9.506509
0.05206,-9.506509
0.0781,-9.50787
0.10413,-9.50923
0.13016,-9.510591
0.15619,-9.511951
0.18223,-9.513311
0.20826,-9.514672
0.23429,-9.516032
0.26032,-9.517393
0.28636,-9.520114
0.31239,-9.521475
0.33842,-9.521475
0.36445,-9.521475
0.39049,-9.518753
0.41652,-9.516032
0.44255,-9.513311
0.46858,-9.511951
0.49462,-9.511951
0.52065,-9.511951
0.54668,-9.513311
0.57271,-9.513311
0.59875,-9.514672
0.62478,-9.516032
0.65081,-9.516032
0.67684,-9.517393
0.70288,-9.517393
0.72891,-9.517393
0.75494,-9.517393
,
,
0.0,-9.498345
0.02603,-9.498345
0.05206,-9.498345
0.0781,-9.499705
0.10413,-9.501066
0.13016,-9.502427
0.15619,-9.505148
0.18223,-9.50787
0.20826,-9.510591
0.23429,-9.514672
0.26032,-9.517393
0.28636,-9.517393
0.31239,-9.514672
0.33842,-9.513311
0.36445,-9.513311
0.39049,-9.511951
0.41652,-9.511951
0.44255,-9.513311
0.46858,-9.511951
0.49462,-9.50923
0.52065,-9.506509
0.54668,-9.502427
0.57271,-9.499705
0.59875,-9.496984
0.62478,-9.495624
0.65081,-9.494264
0.67684,-9.492903
0.70288,-9.492903
0.72891,-9.492903
0.75494,-9.492903
,
,
0.0,-9.498345
0.02603,-9.498345
0.05206,-9.498345
0.0781,-9.498345
0.10413,-9.498345
0.13016,-9.499705
0.15619,-9.501066
0.18223,-9.502427
0.20826,-9.502427
0.23429,-9.503788
0.26032,-9.503788
0.28636,-9.505148
0.31239,-9.506509
0.33842,-9.50787
0.36445,-9.50923
0.39049,-9.510591
0.41652,-9.511951
0.44255,-9.511951
0.46858,-9.511951
0.49462,-9.50923
0.52065,-9.506509
0.54668,-9.502427
0.57271,-9.499705
0.59875,-9.496984
0.62478,-9.495624
0.65081,-9.492903
0.67684,-9.490181
0.70288,-9.488821
0.72891,-9.48746
0.75494,-9.48746
,
,
0.0,-9.492903
0.02603,-9.494264
0.05206,-9.495624
0.0781,-9.496984
0.10413,-9.498345
0.13016,-9.499705
0.15619,-9.499705
0.18223,-9.501066
0.20826,-9.502427
0.23429,-9.503788
0.26032,-9.503788
0.28636,-9.503788
0.31239,-9.503788
0.33842,-9.503788
0.36445,-9.502427
0.39049,-9.502427
0.41652,-9.501066
0.44255,-9.501066
0.46858,-9.499705
0.49462,-9.498345
0.52065,-9.498345
0.54668,-9.496984
0.57271,-9.495624
0.59875,-9.495624
0.62478,-9.494264
0.65081,-9.492903
0.67684,-9.490181
0.70288,-9.488821
0.72891,-9.48746
0.75494,-9.48746
,
,
0.0,-9.492903
0.02603,-9.491542
0.05206,-9.488821
0.0781,-9.48746
0.10413,-9.484739
0.13016,-9.483379
0.15619,-9.480658
0.18223,-9.477937
0.20826,-9.476576
0.23429,-9.473855
0.26032,-9.471133
0.28636,-9.468412
0.31239,-9.465691
0.33842,-9.464331
0.36445,-9.464331
0.39049,-9.46297
0.41652,-9.46297
0.44255,-9.46297
0.46858,-9.46297
0.49462,-9.464331
0.52065,-9.464331
0.54668,-9.464331
0.57271,-9.465691
0.59875,-9.465691
0.62478,-9.467052
0.65081,-9.467052
0.67684,-9.468412
0.70288,-9.469773
0.72891,-9.469773
0.75494,-9.469773
,
,
0.0,-9.473855
0.02603,-9.473855
0.05206,-9.472494
0.0781,-9.472494
0.10413,-9.471133
0.13016,-9.471133
0.15619,-9.469773
0.18223,-9.468412
0.20826,-9.468412
0.23429,-9.467052
0.26032,-9.465691
0.28636,-9.465691
0.31239,-9.464331
0.33842,-9.464331
0.36445,-9.464331
0.39049,-9.46297
0.41652,-9.46297
0.44255,-9.46297
0.46858,-9.46297
0.49462,-9.464331
0.52065,-9.464331
0.54668,-9.464331
0.57271,-9.465691
0.59875,-9.465691
0.62478,-9.467052
0.65081,-9.467052
0.67684,-9.468412
0.70288,-9.469773
0.72891,-9.469773
0.75494,-9.469773
,
,
0.0,-9.473855
0.02603,-9.473855
0.05206,-9.472494
0.0781,-9.472494
0.10413,-9.471133
0.13016,-9.471133
0.15619,-9.469773
0.18223,-9.468412
0.20826,-9.468412
0.23429,-9.467052
0.26032,-9.465691
0.28636,-9.465691
0.31239,-9.464331
0.33842,-9.46297
0.36445,-9.460249
0.39049,-9.457528
0.41652,-9.454807
0.44255,-9.452085
0.46858,-9.449365
0.49462,-9.448004
0.52065,-9.445283
0.54668,-9.443922
0.57271,-9.442561
0.59875,-9.442561
0.62478,-9.442561
0.65081,-9.442561
0.67684,-9.442561
0.70288,-9.442561
0.72891,-9.442561
0.75494,-9.442561
,
,
0.0,-9.419432
0.02603,-9.418071
0.05206,-9.418071
0.0781,-9.418071
0.10413,-9.418071
0.13016,-9.41671
0.15619,-9.41671
0.18223,-9.420793
0.20826,-9.423513
0.23429,-9.426234
0.26032,-9.428956
0.28636,-9.431677
0.31239,-9.434398
0.33842,-9.435758
0.36445,-9.437119
0.39049,-9.438479
0.41652,-9.43984
0.44255,-9.43984
0.46858,-9.4412
0.49462,-9.4412
0.52065,-9.4412
0.54668,-9.442561
0.57271,-9.4412
0.59875,-9.43984
0.62478,-9.438479
0.65081,-9.438479
0.67684,-9.437119
0.70288,-9.437119
0.72891,-9.435758
0.75494,-9.435758
,
,
0.0,-9.419432
0.02603,-9.418071
0.05206,-9.418071
0.0781,-9.418071
0.10413,-9.418071
0.13016,-9.41671
0.15619,-9.41671
0.18223,-9.41535
0.20826,-9.41535
0.23429,-9.413989
0.26032,-9.412628
0.28636,-9.412628
0.31239,-9.411267
0.33842,-9.409907
0.36445,-9.409907
0.39049,-9.408546
0.41652,-9.407186
0.44255,-9.407186
0.46858,-9.405826
0.49462,-9.404466
0.52065,-9.404466
0.54668,-9.403105
0.57271,-9.403105
0.59875,-9.401744
0.62478,-9.401744
0.65081,-9.401744
0.67684,-9.400384
0.70288,-9.400384
0.72891,-9.400384
0.75494,-9.400384
,
,
0.0,-9.39358
0.02603,-9.397662
0.05206,-9.401744
0.0781,-9.404466
0.10413,-9.408546
0.13016,-9.412628
0.15619,-9.41671
0.18223,-9.41535
0.20826,-9.41535
0.23429,-9.413989
0.26032,-9.412628
0.28636,-9.412628
0.31239,-9.411267
0.33842,-9.409907
0.36445,-9.409907
0.39049,-9.408546
0.41652,-9.407186
0.44255,-9.407186
0.46858,-9.405826
0.49462,-9.404466
0.52065,-9.404466
0.54668,-9.403105
0.57271,-9.403105
0.59875,-9.401744
0.62478,-9.401744
0.65081,-9.401744
0.67684,-9.400384
0.70288,-9.400384
0.72891,-9.400384
0.75494,-9.400384
,
,
0.0,-9.39358
0.02603,-9.389499
