k,Energy (eV)
0.0,-10.677423
0.0261,-10.685587
0.0522,-10.695111
0.0783,-10.704636
0.10441,-10.71416
0.13051,-10.722322
0.15661,-10.731847
0.18271,-10.74001
0.20882,-10.748174
0.23492,-10.757698
0.26102,-10.765862
0.28712,-10.772665
0.31322,-10.780828
0.33933,-10.787631
0.36543,-10.794434
0.39153,-10.801236
0.41763,-10.808039
0.44373,-10.813481
0.46984,-10.818924
0.49594,-10.824367
0.52204,-10.828448
0.54814,-10.832529
0.57425,-10.836612
0.60035,-10.839333
0.62645,-10.842053
0.65255,-10.844775
0.67865,-10.846136
0.70476,-10.847496
0.73086,-10.848857
0.75696,-10.848857
,
,
0.0,-10.677423
0.0261,-10.667899
0.0522,-10.658376
0.0783,-10.650212
0.10441,-10.640688
0.13051,-10.632524
0.15661,-10.624361
0.18271,-10.620279
0.20882,-10.620279
0.23492,-10.620279
0.26102,-10.620279
0.28712,-10.620279
0.31322,-10.620279
0.33933,-10.620279
0.36543,-10.620279
0.39153,-10.620279
0.41763,-10.620279
0.44373,-10.618918
0.46984,-10.618918
0.49594,-10.618918
0.52204,-10.618918
0.54814,-10.618918
0.57425,-10.617558
0.60035,-10.617558
0.62645,-10.617558
0.65255,-10.617558
0.67865,-10.617558
0.70476,-10.617558
0.73086,-10.617558
0.75696,-10.617558
,
,
0.0,-10.614837
0.0261,-10.616198
0.0522,-10.617558
0.0783,-10.617558
0.10441,-10.618918
0.13051,-10.618918
0.15661,-10.620279
0.18271,-10.616198
0.20882,-10.608034
0.23492,-10.601232
0.26102,-10.59715
0.28712,-10.594428
0.31322,-10.591707
0.33933,-10.590346
0.36543,-10.587626
0.39153,-10.584904
0.41763,-10.582184
0.44373,-10.579462
0.46984,-10.578101
0.49594,-10.57538
0.52204,-10.574019
0.54814,-10.571299
0.57425,-10.569938
0.60035,-10.568577
0.62645,-10.567217
0.65255,-10.565856
0.67865,-10.564495
0.70476,-10.564495
0.73086,-10.563135
0.75696,-10.563135
,
,
0.0,-10.614837
0.0261,-10.613476
0.0522,-10.612116
0.0783,-10.610756
0.10441,-10.609395
0.13051,-10.608034
0.15661,-10.605313
0.18271,-10.603952
0.20882,-10.601232
0.23492,-10.599871
0.26102,-10.594428
0.28712,-10.587626
0.31322,-10.580823
0.33933,-10.574019
0.36543,-10.568577
0.39153,-10.563135
0.41763,-10.557693
0.44373,-10.553611
0.46984,-10.549529
0.49594,-10.545447
0.52204,-10.541366
0.54814,-10.538645
0.57425,-10.535923
0.60035,-10.533202
0.62645,-10.531841
0.65255,-10.530481
0.67865,-10.52912
0.70476,-10.527761
0.73086,-10.527761
0.75696,-10.527761
,
,
0.0,-10.191697
0.0261,-10.191697
0.0522,-10.191697
0.0783,-10.190336
0.10441,-10.188975
0.13051,-10.186255
0.15661,-10.183533
0.18271,-10.180812
0.20882,-10.17673
0.23492,-10.172648
0.26102,-10.168567
0.28712,-10.163124
0.31322,-10.159042
0.33933,-10.1536
0.36543,-10.146798
0.39153,-10.139995
0.41763,-10.134552
0.44373,-10.126389
0.46984,-10.119586
0.49594,-10.112783
0.52204,-10.104619
0.54814,-10.097816
0.57425,-10.089653
0.60035,-10.08149
0.62645,-10.074686
0.65255,-10.067884
0.67865,-10.065163
0.70476,-10.066524
0.73086,-10.066524
0.75696,-10.067884
,
,
0.0,-10.191697
0.0261,-10.191697
0.0522,-10.191697
0.0783,-10.190336
0.10441,-10.188975
0.13051,-10.186255
0.15661,-10.183533
0.18271,-10.180812
0.20882,-10.17673
0.23492,-10.172648
0.26102,-10.168567
0.28712,-10.163124
0.31322,-10.159042
0.33933,-10.1536
0.36543,-10.146798
0.39153,-10.139995
0.41763,-10.134552
0.44373,-10.126389
0.46984,-10.119586
0.49594,-10.112783
0.52204,-10.104619
0.54814,-10.097816
0.57425,-10.089653
0.60035,-10.08149
0.62645,-10.074686
0.65255,-10.067884
0.67865,-10.062442
0.70476,-10.056999
0.73086,-10.056999
0.75696,-10.056999
,
,
0.0,-10.052917
0.0261,-10.054278
0.0522,-10.055638
0.0783,-10.056999
0.10441,-10.05836
0.13051,-10.059721
0.15661,-10.059721
0.18271,-10.059721
0.20882,-10.061081
0.23492,-10.061081
0.26102,-10.061081
0.28712,-10.061081
0.31322,-10.061081
0.33933,-10.061081
0.36543,-10.061081
0.39153,-10.059721
0.41763,-10.059721
0.44373,-10.059721
0.46984,-10.059721
0.49594,-10.05836
0.52204,-10.05836
0.54814,-10.05836
0.57425,-10.056999
0.60035,-10.059721
0.62645,-10.062442
0.65255,-10.063803
0.67865,-10.062442
0.70476,-10.056999
0.73086,-10.054278
0.75696,-10.052917
,
,
0.0,-10.052917
0.0261,-10.050196
0.0522,-10.047475
0.0783,-10.044754
0.10441,-10.042032
0.13051,-10.039312
0.15661,-10.035231
0.18271,-10.031148
0.20882,-10.027066
0.23492,-10.021624
0.26102,-10.016181
0.28712,-10.013461
0.31322,-10.017542
0.33933,-10.021624
0.36543,-10.025705
0.39153,-10.031148
0.41763,-10.035231
0.44373,-10.039312
0.46984,-10.043393
0.49594,-10.046114
0.52204,-10.050196
0.54814,-10.054278
0.57425,-10.056999
0.60035,-10.056999
0.62645,-10.056999
0.65255,-10.056999
0.67865,-10.056999
0.70476,-10.056999
0.73086,-10.054278
0.75696,-10.052917
,
,
0.0,-9.979446
0.0261,-9.982167
0.0522,-9.983528
0.0783,-9.986249
0.10441,-9.98897
0.13051,-9.991691
0.15661,-9.994412
0.18271,-9.998494
0.20882,-10.001215
0.23492,-10.005298
0.26102,-10.009379
0.28712,-10.0121
0.31322,-10.006658
0.33933,-9.999855
0.36543,-9.994412
0.39153,-9.98761
0.41763,-9.982167
0.44373,-9.975365
0.46984,-9.968561
0.49594,-9.96584
0.52204,-9.96584
0.54814,-9.964479
0.57425,-9.963119
0.60035,-9.961759
0.62645,-9.961759
0.65255,-9.960398
0.67865,-9.960398
0.70476,-9.960398
0.73086,-9.963119
0.75696,-9.964479
,
,
0.0,-9.979446
0.0261,-9.978086
0.0522,-9.976726
0.0783,-9.975365
0.10441,-9.975365
0.13051,-9.974004
0.15661,-9.972643
0.18271,-9.972643
0.20882,-9.972643
0.23492,-9.971283
0.26102,-9.971283
0.28712,-9.971283
0.31322,-9.971283
0.33933,-9.969922
0.36543,-9.969922
0.39153,-9.969922
0.41763,-9.968561
0.44373,-9.968561
0.46984,-9.9672
0.49594,-9.963119
0.52204,-9.956317
0.54814,-9.950874
0.57425,-9.945432
0.60035,-9.939989
0.62645,-9.94271
0.65255,-9.949513
0.67865,-9.954956
0.70476,-9.960398
0.73086,-9.963119
0.75696,-9.964479
,
,
0.0,-9.808013
0.0261,-9.809374
0.0522,-9.810734
0.0783,-9.813456
0.10441,-9.817537
0.13051,-9.821619
0.15661,-9.825701
0.18271,-9.829782
0.20882,-9.835224
0.23492,-9.840667
0.26102,-9.846109
0.28712,-9.851552
0.31322,-9.858355
0.33933,-9.863797
0.36543,-9.8706
0.39153,-9.877403
0.41763,-9.884205
0.44373,-9.891008
0.46984,-9.897812
0.49594,-9.905974
0.52204,-9.912778
0.54814,-9.920941
0.57425,-9.927745
0.60035,-9.935907
0.62645,-9.94271
0.65255,-9.949513
0.67865,-9.954956
0.70476,-9.959038
0.73086,-9.959038
0.75696,-9.959038
,
,
0.0,-9.808013
0.0261,-9.809374
0.0522,-9.810734
0.0783,-9.813456
0.10441,-9.817537
0.13051,-9.821619
0.15661,-9.825701
0.18271,-9.829782
0.20882,-9.835224
0.23492,-9.840667
0.26102,-9.846109
0.28712,-9.851552
0.31322,-9.858355
0.33933,-9.863797
0.36543,-9.8706
0.39153,-9.877403
0.41763,-9.884205
0.44373,-9.891008
0.46984,-9.897812
0.49594,-9.905974
0.52204,-9.912778
0.54814,-9.920941
0.57425,-9.927745
0.60035,-9.935907
0.62645,-9.935907
0.65255,-9.931826
0.67865,-9.927745
0.70476,-9.925023
0.73086,-9.923662
0.75696,-9.923662
,
,
0.0,-9.786243
0.0261,-9.786243
0.0522,-9.786243
0.0783,-9.784883
0.10441,-9.783523
0.13051,-9.782162
0.15661,-9.780802
0.18271,-9.780802
0.20882,-9.779441
0.23492,-9.779441
0.26102,-9.780802
0.28712,-9.780802
0.31322,-9.782162
0.33933,-9.783523
0.36543,-9.784883
0.39153,-9.786243
0.41763,-9.788965
0.44373,-9.790326
0.46984,-9.793047
0.49594,-9.794408
0.52204,-9.797129
0.54814,-9.798489
0.57425,-9.801209
0.60035,-9.80257
0.62645,-9.803931
0.65255,-9.805292
0.67865,-9.806652
0.70476,-9.808013
0.73086,-9.808013
0.75696,-9.808013
,
,
0.0,-9.786243
0.0261,-9.786243
0.0522,-9.786243
0.0783,-9.784883
0.10441,-9.783523
0.13051,-9.782162
0.15661,-9.780802
0.18271,-9.780802
0.20882,-9.779441
0.23492,-9.779441
0.26102,-9.780802
0.28712,-9.780802
0.31322,-9.782162
0.33933,-9.783523
0.36543,-9.784883
0.39153,-9.786243
0.41763,-9.788965
0.44373,-9.790326
0.46984,-9.793047
0.49594,-9.794408
0.52204,-9.797129
0.54814,-9.798489
0.57425,-9.801209
0.60035,-9.80257
0.62645,-9.803931
0.65255,-9.805292
0.67865,-9.806652
0.70476,-9.808013
0.73086,-9.808013
0.75696,-9.808013
,
,
0.0,-9.669233
0.0261,-9.669233
0.0522,-9.670594
0.0783,-9.676037
0.10441,-9.680119
0.13051,-9.685561
0.15661,-9.691003
0.18271,-9.696445
0.20882,-9.700527
0.23492,-9.70597
0.26102,-9.710052
0.28712,-9.715493
0.31322,-9.719575
0.33933,-9.725018
0.36543,-9.729099
0.39153,-9.734542
0.41763,-9.739985
0.44373,-9.748147
0.46984,-9.756311
0.49594,-9.763114
0.52204,-9.769917
0.54814,-9.776719
0.57425,-9.782162
0.60035,-9.787604
0.62645,-9.793047
0.65255,-9.795768
0.67865,-9.79985
0.70476,-9.801209
0.73086,-9.80257
0.75696,-9.803931
,
,
0.0,-9.669233
0.0261,-9.669233
0.0522,-9.669233
0.0783,-9.669233
0.10441,-9.669233
0.13051,-9.669233
0.15661,-9.669233
0.18271,-9.669233
0.20882,-9.669233
0.23492,-9.677398
0.26102,-9.686922
0.28712,-9.696445
0.31322,-9.70597
0.33933,-9.715493
0.36543,-9.723657
0.39153,-9.731821
0.41763,-9.738624
0.44373,-9.742705
0.46984,-9.746787
0.49594,-9.752229
0.52204,-9.756311
0.54814,-9.759032
0.57425,-9.763114
0.60035,-9.767196
0.62645,-9.769917
0.65255,-9.772637
0.67865,-9.775359
0.70476,-9.776719
0.73086,-9.77808
0.75696,-9.77808
,
,
0.0,-9.65971
0.0261,-9.665152
0.0522,-9.669233
0.0783,-9.669233
0.10441,-9.669233
0.13051,-9.669233
0.15661,-9.669233
0.18271,-9.669233
0.20882,-9.669233
0.23492,-9.669233
0.26102,-9.669233
0.28712,-9.669233
0.31322,-9.670594
0.33933,-9.671955
0.36543,-9.673316
0.39153,-9.674676
0.41763,-9.676037
0.44373,-9.677398
0.46984,-9.678758
0.49594,-9.680119
0.52204,-9.68284
0.54814,-9.6842
0.57425,-9.685561
0.60035,-9.686922
0.62645,-9.688282
0.65255,-9.688282
0.67865,-9.689642
0.70476,-9.689642
0.73086,-9.689642
0.75696,-9.689642
,
,
0.0,-9.65971
0.0261,-9.654267
0.0522,-9.648826
0.0783,-9.642022
0.10441,-9.63658
0.13051,-9.640661
0.15661,-9.650186
0.18271,-9.65971
0.20882,-9.669233
0.23492,-9.669233
0.26102,-9.669233
0.28712,-9.669233
0.31322,-9.670594
0.33933,-9.671955
0.36543,-9.673316
0.39153,-9.674676
0.41763,-9.676037
0.44373,-9.677398
0.46984,-9.678758
0.49594,-9.680119
0.52204,-9.68284
0.54814,-9.6842
0.57425,-9.685561
0.60035,-9.686922
0.62645,-9.688282
0.65255,-9.688282
0.67865,-9.689642
0.70476,-9.689642
0.73086,-9.689642
0.75696,-9.689642
,
,
0.0,-9.617532
0.0261,-9.618893
0.0522,-9.620253
0.0783,-9.624335
0.10441,-9.632499
0.13051,-9.631138
0.15661,-9.625695
0.18271,-9.620253
0.20882,-9.61345
0.23492,-9.610728
0.26102,-9.609368
0.28712,-9.608007
0.31322,-9.608007
0.33933,-9.608007
0.36543,-9.609368
0.39153,-9.609368
0.41763,-9.610728
0.44373,-9.610728
0.46984,-9.610728
0.49594,-9.610728
0.52204,-9.610728
0.54814,-9.610728
0.57425,-9.610728
0.60035,-9.610728
0.62645,-9.610728
0.65255,-9.610728
0.67865,-9.610728
0.70476,-9.610728
0.73086,-9.610728
0.75696,-9.610728
,
,
0.0,-9.617532
0.0261,-9.616171
0.0522,-9.616171
0.0783,-9.614811
0.10441,-9.61345
0.13051,-9.61345
0.15661,-9.61345
0.18271,-9.612089
0.20882,-9.612089
0.23492,-9.608007
0.26102,-9.605287
0.28712,-9.606647
0.31322,-9.608007
0.33933,-9.608007
0.36543,-9.609368
0.39153,-9.609368
0.41763,-9.610728
0.44373,-9.610728
0.46984,-9.610728
0.49594,-9.610728
0.52204,-9.610728
0.54814,-9.610728
0.57425,-9.610728
0.60035,-9.610728
0.62645,-9.610728
0.65255,-9.610728
0.67865,-9.610728
0.70476,-9.610728
0.73086,-9.610728
0.75696,-9.610728
,
,
0.0,-9.598484
0.0261,-9.598484
0.0522,-9.605287
0.0783,-9.610728
0.10441,-9.61345
0.13051,-9.610728
0.15661,-9.609368
0.18271,-9.606647
0.20882,-9.605287
0.23492,-9.603927
0.26102,-9.605287
0.28712,-9.606647
0.31322,-9.606647
0.33933,-9.605287
0.36543,-9.602566
0.39153,-9.601205
0.41763,-9.599845
0.44373,-9.598484
0.46984,-9.597123
0.49594,-9.595762
0.52204,-9.594402
0.54814,-9.594402
0.57425,-9.593041
0.60035,-9.591681
0.62645,-9.591681
0.65255,-9.590321
0.67865,-9.590321
0.70476,-9.58896
0.73086,-9.58896
0.75696,-9.58896
,
,
0.0,-9.598484
0.0261,-9.598484
0.0522,-9.599845
0.0783,-9.599845
0.10441,-9.599845
0.13051,-9.601205
0.15661,-9.601205
0.18271,-9.602566
0.20882,-9.602566
0.23492,-9.603927
0.26102,-9.602566
0.28712,-9.597123
0.31322,-9.594402
0.33933,-9.591681
0.36543,-9.58896
0.39153,-9.586238
0.41763,-9.583517
0.44373,-9.580796
0.46984,-9.578075
0.49594,-9.575355
0.52204,-9.572633
0.54814,-9.572633
0.57425,-9.572633
0.60035,-9.572633
0.62645,-9.572633
0.65255,-9.572633
0.67865,-9.572633
0.70476,-9.572633
0.73086,-9.572633
0.75696,-9.572633
,
,
0.0,-9.58896
0.0261,-9.598484
0.0522,-9.599845
0.0783,-9.599845
0.10441,-9.599845
0.13051,-9.601205
0.15661,-9.601205
0.18271,-9.602566
0.20882,-9.602566
0.23492,-9.602566
0.26102,-9.599845
0.28712,-9.595762
0.31322,-9.590321
0.33933,-9.584878
0.36543,-9.579435
0.39153,-9.573994
0.41763,-9.572633
0.44373,-9.572633
0.46984,-9.572633
0.49594,-9.572633
0.52204,-9.572633
0.54814,-9.572633
0.57425,-9.572633
0.60035,-9.572633
0.62645,-9.572633
0.65255,-9.572633
0.67865,-9.572633
0.70476,-9.572633
0.73086,-9.572633
0.75696,-9.572633
,
,
0.0,-9.58896
0.0261,-9.580796
0.0522,-9.571272
0.0783,-9.561748
0.10441,-9.560388
0.13051,-9.561748
0.15661,-9.563108
0.18271,-9.564469
0.20882,-9.56583
0.23492,-9.56719
0.26102,-9.568551
0.28712,-9.568551
0.31322,-9.569912
0.33933,-9.571272
0.36543,-9.571272
0.39153,-9.572633
0.41763,-9.572633
0.44373,-9.572633
0.46984,-9.572633
0.49594,-9.572633
0.52204,-9.572633
0.54814,-9.571272
0.57425,-9.568551
0.60035,-9.56719
0.62645,-9.56583
0.65255,-9.564469
0.67865,-9.563108
0.70476,-9.563108
0.73086,-9.561748
0.75696,-9.561748
,
,
0.0,-9.559027
0.0261,-9.559027
0.0522,-9.559027
0.0783,-9.560388
0.10441,-9.560388
0.13051,-9.561748
0.15661,-9.563108
0.18271,-9.564469
0.20882,-9.56583
0.23492,-9.56719
0.26102,-9.568551
0.28712,-9.568551
0.31322,-9.569912
0.33933,-9.571272
0.36543,-9.571272
0.39153,-9.572633
0.41763,-9.568551
0.44373,-9.563108
0.46984,-9.557666
0.49594,-9.553584
0.52204,-9.548142
0.54814,-9.544061
0.57425,-9.539979
0.60035,-9.535897
0.62645,-9.534536
0.65255,-9.534536
0.67865,-9.535897
0.70476,-9.535897
0.73086,-9.535897
0.75696,-9.535897
,
,
0.0,-9.559027
0.0261,-9.559027
0.0522,-9.559027
0.0783,-9.560388
0.10441,-9.553584
0.13051,-9.544061
0.15661,-9.535897
0.18271,-9.527733
0.20882,-9.525013
0.23492,-9.526373
0.26102,-9.526373
0.28712,-9.527733
0.31322,-9.527733
0.33933,-9.529094
0.36543,-9.529094
0.39153,-9.530455
0.41763,-9.530455
0.44373,-9.531816
0.46984,-9.531816
0.49594,-9.531816
0.52204,-9.533175
0.54814,-9.533175
0.57425,-9.534536
0.60035,-9.534536
0.62645,-9.534536
0.65255,-9.534536
0.67865,-9.535897
0.70476,-9.535897
0.73086,-9.535897
0.75696,-9.535897
,
,
0.0,-9.523652
0.0261,-9.523652
0.0522,-9.523652
0.0783,-9.523652
0.10441,-9.523652
0.13051,-9.523652
0.15661,-9.525013
0.18271,-9.525013
0.20882,-9.525013
0.23492,-9.526373
0.26102,-9.526373
0.28712,-9.527733
0.31322,-9.527733
0.33933,-9.529094
0.36543,-9.529094
0.39153,-9.530455
0.41763,-9.530455
0.44373,-9.531816
0.46984,-9.531816
0.49594,-9.531816
0.52204,-9.533175
0.54814,-9.533175
0.57425,-9.534536
0.60035,-9.534536
0.62645,-9.533175
0.65255,-9.530455
0.67865,-9.527733
0.70476,-9.526373
0.73086,-9.525013
0.75696,-9.525013
,
,
0.0,-9.523652
0.0261,-9.523652
0.0522,-9.523652
0.0783,-9.523652
0.10441,-9.523652
0.13051,-9.523652
0.15661,-9.525013
0.18271,-9.525013
0.20882,-9.51957
0.23492,-9.511407
0.26102,-9.503242
0.28712,-9.49508
0.31322,-9.486917
0.33933,-9.480113
0.36543,-9.47331
0.39153,-9.466508
0.41763,-9.459704
0.44373,-9.452902
0.46984,-9.447459
0.49594,-9.442018
0.52204,-9.437936
0.54814,-9.436575
0.57425,-9.436575
0.60035,-9.436575
0.62645,-9.435214
0.65255,-9.435214
0.67865,-9.435214
0.70476,-9.433854
0.73086,-9.433854
0.75696,-9.433854
,
,
0.0,-9.443377
0.0261,-9.443377
0.0522,-9.443377
0.0783,-9.444738
0.10441,-9.444738
0.13051,-9.444738
0.15661,-9.444738
0.18271,-9.444738
0.20882,-9.444738
0.23492,-9.444738
0.26102,-9.444738
0.28712,-9.444738
0.31322,-9.443377
0.33933,-9.443377
0.36543,-9.442018
0.39153,-9.442018
0.41763,-9.440657
0.44373,-9.440657
0.46984,-9.439296
0.49594,-9.439296
0.52204,-9.437936
0.54814,-9.436575
0.57425,-9.436575
0.60035,-9.436575
0.62645,-9.435214
0.65255,-9.435214
0.67865,-9.435214
0.70476,-9.433854
0.73086,-9.433854
0.75696,-9.433854
,
,
0.0,-9.443377
0.0261,-9.443377
0.0522,-9.443377
0.0783,-9.444738
0.10441,-9.444738
0.13051,-9.444738
0.15661,-9.444738
0.18271,-9.444738
0.20882,-9.444738
0.23492,-9.444738
0.26102,-9.444738
0.28712,-9.444738
0.31322,-9.443377
0.33933,-9.443377
0.36543,-9.442018
0.39153,-9.442018
0.41763,-9.440657
0.44373,-9.440657
0.46984,-9.439296
0.49594,-9.439296
0.52204,-9.436575
0.54814,-9.431132
0.57425,-9.427051
0.60035,-9.42433
0.62645,-9.42569
0.65255,-9.427051
0.67865,-9.428411
0.70476,-9.428411
0.73086,-9.429771
0.75696,-9.429771
,
,
0.0,-9.393036
0.0261,-9.393036
0.0522,-9.393036
0.0783,-9.394397
0.10441,-9.394397
0.13051,-9.395757
0.15661,-9.395757
0.18271,-9.397118
0.20882,-9.398479
0.23492,-9.399839
0.26102,-9.401199
0.28712,-9.40256
0.31322,-9.403921
0.33933,-9.405281
0.36543,-9.406642
0.39153,-9.408003
0.41763,-9.410724
0.44373,-9.412085
0.46984,-9.414805
0.49594,-9.416166
0.52204,-9.417526
0.54814,-9.420247
0.57425,-9.421608
0.60035,-9.422969
0.62645,-9.420247
0.65255,-9.417526
0.67865,-9.414805
0.70476,-9.413445
0.73086,-9.413445
0.75696,-9.412085
,
,
0.0,-9.393036
0.0261,-9.391675
0.0522,-9.391675
0.0783,-9.391675
0.10441,-9.391675
0.13051,-9.391675
0.15661,-9.391675
0.18271,-9.393036
0.20882,-9.393036
0.23492,-9.393036
0.26102,-9.394397
0.28712,-9.394397
0.31322,-9.395757
0.33933,-9.395757
0.36543,-9.397118
0.39153,-9.398479
0.41763,-9.398479
0.44373,-9.399839
0.46984,-9.401199
0.49594,-9.40256
0.52204,-9.40256
0.54814,-9.403921
0.57425,-9.405281
0.60035,-9.405281
0.62645,-9.406642
0.65255,-9.408003
0.67865,-9.408003
0.70476,-9.408003
0.73086,-9.408003
0.75696,-9.408003
,
,
0.0,-9.325007
0.0261,-9.326368
0.0522,-9.329089
0.0783,-9.33045
0.10441,-9.333171
0.13051,-9.334532
0.15661,-9.337252
0.18271,-9.337252
0.20882,-9.338613
0.23492,-9.338613
0.26102,-9.338613
0.28712,-9.338613
0.31322,-9.339973
0.33933,-9.342694
0.36543,-9.344055
0.39153,-9.345416
0.41763,-9.346776
0.44373,-9.348137
0.46984,-9.349498
0.49594,-9.350859
0.52204,-9.352219
0.54814,-9.35358
0.57425,-9.35494
0.60035,-9.35494
0.62645,-9.3563
0.65255,-9.3563
0.67865,-9.357661
0.70476,-9.357661
0.73086,-9.357661
0.75696,-9.357661
,
,
0.0,-9.325007
0.0261,-9.326368
0.0522,-9.329089
0.0783,-9.33045
0.10441,-9.333171
0.13051,-9.334532
0.15661,-9.337252
0.18271,-9.337252
0.20882,-9.338613
0.23492,-9.338613
0.26102,-9.338613
0.28712,-9.338613
0.31322,-9.338613
0.33933,-9.337252
0.36543,-9.337252
0.39153,-9.335892
0.41763,-9.334532
0.44373,-9.333171
0.46984,-9.33181
0.49594,-9.33045
0.52204,-9.327728
0.54814,-9.326368
0.57425,-9.325007
0.60035,-9.325007
0.62645,-9.326368
0.65255,-9.326368
0.67865,-9.327728
0.70476,-9.327728
0.73086,-9.327728
0.75696,-9.327728
,
,
0.0,-9.315483
0.0261,-9.316844
0.0522,-9.319565
0.0783,-9.320926
0.10441,-9.323647
0.13051,-9.326368
0.15661,-9.327728
0.18271,-9.33045
0.20882,-9.33181
0.23492,-9.334532
0.26102,-9.335892
0.28712,-9.338613
0.31322,-9.338613
0.33933,-9.337252
0.36543,-9.337252
0.39153,-9.335892
0.41763,-9.334532
0.44373,-9.333171
0.46984,-9.33181
0.49594,-9.33045
0.52204,-9.327728
0.54814,-9.326368
0.57425,-9.325007
0.60035,-9.323647
0.62645,-9.322286
0.65255,-9.322286
0.67865,-9.320926
0.70476,-9.320926
0.73086,-9.319565
0.75696,-9.319565
,
,
0.0,-9.315483
0.0261,-9.314122
0.0522,-9.311401
0.0783,-9.308681
0.10441,-9.30732
0.13051,-9.304599
0.15661,-9.303238
0.18271,-9.301878
0.20882,-9.299156
0.23492,-9.297795
0.26102,-9.300517
0.28712,-9.303238
0.31322,-9.304599
0.33933,-9.30732
0.36543,-9.31004
0.39153,-9.311401
0.41763,-9.314122
0.44373,-9.315483
0.46984,-9.318204
0.49594,-9.319565
0.52204,-9.320926
0.54814,-9.322286
0.57425,-9.323647
0.60035,-9.323647
0.62645,-9.322286
0.65255,-9.322286
0.67865,-9.320926
0.70476,-9.320926
0.73086,-9.319565
0.75696,-9.319565
,
,
0.0,-9.315483
0.0261,-9.314122
0.0522,-9.311401
0.0783,-9.30732
0.10441,-9.303238
0.13051,-9.299156
0.15661,-9.293714
0.18271,-9.293714
0.20882,-9.296435
0.23492,-9.297795
0.26102,-9.296435
0.28712,-9.295074
0.31322,-9.293714
0.33933,-9.292354
0.36543,-9.292354
0.39153,-9.290993
0.41763,-9.290993
0.44373,-9.289632
0.46984,-9.289632
0.49594,-9.289632
0.52204,-9.288271
0.54814,-9.288271
0.57425,-9.288271
0.60035,-9.288271
0.62645,-9.288271
0.65255,-9.288271
0.67865,-9.288271
0.70476,-9.288271
