k,Energy (eV)
0.0,-10.569938
0.02604,-10.582183
0.05209,-10.593067
0.07814,-10.603952
0.10418,-10.614837
0.13023,-10.625721
0.15628,-10.636606
0.18232,-10.647491
0.20837,-10.657015
0.23442,-10.667899
0.26046,-10.677423
0.28651,-10.686948
0.31256,-10.695111
0.3386,-10.703274
0.36465,-10.711438
0.3907,-10.719602
0.41674,-10.726404
0.44279,-10.733207
0.46884,-10.738649
0.49488,-10.744092
0.52093,-10.749534
0.54698,-10.754976
0.57302,-10.759058
0.59907,-10.761779
0.62512,-10.765862
0.65116,-10.767221
0.67721,-10.769943
0.70326,-10.771304
0.7293,-10.771304
0.75535,-10.772664
,
,
0.0,-10.569938
0.02604,-10.559052
0.05209,-10.546807
0.07814,-10.535923
0.10418,-10.523678
0.13023,-10.512793
0.15628,-10.501909
0.18232,-10.495106
0.20837,-10.493745
0.23442,-10.493745
0.26046,-10.493745
0.28651,-10.492385
0.31256,-10.492385
0.3386,-10.491024
0.36465,-10.489663
0.3907,-10.489663
0.41674,-10.488302
0.44279,-10.486942
0.46884,-10.485581
0.49488,-10.485581
0.52093,-10.484221
0.54698,-10.482861
0.57302,-10.482861
0.59907,-10.4815
0.62512,-10.4815
0.65116,-10.480139
0.67721,-10.480139
0.70326,-10.480139
0.7293,-10.480139
0.75535,-10.480139
,
,
0.0,-10.491024
0.02604,-10.492385
0.05209,-10.493745
0.07814,-10.493745
0.10418,-10.493745
0.13023,-10.495106
0.15628,-10.495106
0.18232,-10.491024
0.20837,-10.480139
0.23442,-10.471976
0.26046,-10.469254
0.28651,-10.466534
0.31256,-10.462452
0.3386,-10.45973
0.36465,-10.455648
0.3907,-10.452928
0.41674,-10.448846
0.44279,-10.446125
0.46884,-10.442043
0.49488,-10.439322
0.52093,-10.43524
0.54698,-10.432519
0.57302,-10.429797
0.59907,-10.427076
0.62512,-10.425715
0.65116,-10.422995
0.67721,-10.421635
0.70326,-10.420274
0.7293,-10.420274
0.75535,-10.420274
,
,
0.0,-10.491024
0.02604,-10.489663
0.05209,-10.488302
0.07814,-10.486942
0.10418,-10.484221
0.13023,-10.482861
0.15628,-10.480139
0.18232,-10.477418
0.20837,-10.474697
0.23442,-10.470615
0.26046,-10.461091
0.28651,-10.451567
0.31256,-10.442043
0.3386,-10.43388
0.36465,-10.425715
0.3907,-10.417553
0.41674,-10.410749
0.44279,-10.403947
0.46884,-10.398504
0.49488,-10.393063
0.52093,-10.388981
0.54698,-10.384899
0.57302,-10.380816
0.59907,-10.378096
0.62512,-10.375375
0.65116,-10.372653
0.67721,-10.371292
0.70326,-10.369932
0.7293,-10.368572
0.75535,-10.368572
,
,
0.0,-10.193057
0.02604,-10.193057
0.05209,-10.191696
0.07814,-10.190335
0.10418,-10.188975
0.13023,-10.186254
0.15628,-10.184893
0.18232,-10.180811
0.20837,-10.178091
0.23442,-10.174009
0.26046,-10.169928
0.28651,-10.164485
0.31256,-10.159042
0.3386,-10.1536
0.36465,-10.148158
0.3907,-10.141355
0.41674,-10.134552
0.44279,-10.127748
0.46884,-10.119586
0.49488,-10.112782
0.52093,-10.104619
0.54698,-10.096456
0.57302,-10.089653
0.59907,-10.08149
0.62512,-10.073325
0.65116,-10.066524
0.67721,-10.05972
0.70326,-10.061081
0.7293,-10.062442
0.75535,-10.062442
,
,
0.0,-10.193057
0.02604,-10.193057
0.05209,-10.191696
0.07814,-10.190335
0.10418,-10.188975
0.13023,-10.186254
0.15628,-10.184893
0.18232,-10.180811
0.20837,-10.178091
0.23442,-10.174009
0.26046,-10.169928
0.28651,-10.164485
0.31256,-10.159042
0.3386,-10.1536
0.36465,-10.148158
0.3907,-10.141355
0.41674,-10.134552
0.44279,-10.127748
0.46884,-10.119586
0.49488,-10.112782
0.52093,-10.104619
0.54698,-10.096456
0.57302,-10.089653
0.59907,-10.08149
0.62512,-10.073325
0.65116,-10.066524
0.67721,-10.05972
0.70326,-10.054277
0.7293,-10.050196
0.75535,-10.048835
,
,
0.0,-10.013461
0.02604,-10.014821
0.05209,-10.016181
0.07814,-10.016181
0.10418,-10.016181
0.13023,-10.017542
0.15628,-10.016181
0.18232,-10.016181
0.20837,-10.014821
0.23442,-10.014821
0.26046,-10.0121
0.28651,-10.010739
0.31256,-10.008018
0.3386,-10.005297
0.36465,-10.008018
0.3907,-10.013461
0.41674,-10.018902
0.44279,-10.024344
0.46884,-10.029787
0.49488,-10.033869
0.52093,-10.039311
0.54698,-10.043393
0.57302,-10.047475
0.59907,-10.051557
0.62512,-10.055638
0.65116,-10.058359
0.67721,-10.05972
0.70326,-10.054277
0.7293,-10.050196
0.75535,-10.048835
,
,
0.0,-10.013461
0.02604,-10.0121
0.05209,-10.010739
0.07814,-10.009378
0.10418,-10.006658
0.13023,-10.005297
0.15628,-10.003937
0.18232,-10.001215
0.20837,-9.999854
0.23442,-9.997133
0.26046,-9.995772
0.28651,-9.994411
0.31256,-9.997133
0.3386,-10.002576
0.36465,-10.002576
0.3907,-9.998494
0.41674,-9.995772
0.44279,-9.991691
0.46884,-9.98761
0.49488,-9.982167
0.52093,-9.980806
0.54698,-9.982167
0.57302,-9.982167
0.59907,-9.983528
0.62512,-9.983528
0.65116,-9.983528
0.67721,-9.983528
0.70326,-9.983528
0.7293,-9.983528
0.75535,-9.983528
,
,
0.0,-9.959038
0.02604,-9.960398
0.05209,-9.961759
0.07814,-9.963119
0.10418,-9.964479
0.13023,-9.9672
0.15628,-9.971282
0.18232,-9.974004
0.20837,-9.978086
0.23442,-9.982167
0.26046,-9.98761
0.28651,-9.991691
0.31256,-9.991691
0.3386,-9.99033
0.36465,-9.98897
0.3907,-9.986249
0.41674,-9.984888
0.44279,-9.983528
0.46884,-9.982167
0.49488,-9.980806
0.52093,-9.979446
0.54698,-9.978086
0.57302,-9.978086
0.59907,-9.976725
0.62512,-9.976725
0.65116,-9.975364
0.67721,-9.975364
0.70326,-9.975364
0.7293,-9.976725
0.75535,-9.978086
,
,
0.0,-9.959038
0.02604,-9.959038
0.05209,-9.959038
0.07814,-9.959038
0.10418,-9.959038
0.13023,-9.960398
0.15628,-9.961759
0.18232,-9.963119
0.20837,-9.964479
0.23442,-9.965839
0.26046,-9.9672
0.28651,-9.968561
0.31256,-9.971282
0.3386,-9.972643
0.36465,-9.974004
0.3907,-9.975364
0.41674,-9.976725
0.44279,-9.978086
0.46884,-9.979446
0.49488,-9.980806
0.52093,-9.978086
0.54698,-9.974004
0.57302,-9.969921
0.59907,-9.965839
0.62512,-9.961759
0.65116,-9.960398
0.67721,-9.9672
0.70326,-9.972643
0.7293,-9.976725
0.75535,-9.978086
,
,
0.0,-9.810734
0.02604,-9.810734
0.05209,-9.813455
0.07814,-9.814816
0.10418,-9.818897
0.13023,-9.82298
0.15628,-9.827061
0.18232,-9.831142
0.20837,-9.836585
0.23442,-9.842028
0.26046,-9.84883
0.28651,-9.854272
0.31256,-9.861075
0.3386,-9.867878
0.36465,-9.874681
0.3907,-9.881484
0.41674,-9.888287
0.44279,-9.896451
0.46884,-9.903254
0.49488,-9.911416
0.52093,-9.91958
0.54698,-9.927744
0.57302,-9.935907
0.59907,-9.944071
0.62512,-9.952234
0.65116,-9.960398
0.67721,-9.9672
0.70326,-9.972643
0.7293,-9.974004
0.75535,-9.974004
,
,
0.0,-9.810734
0.02604,-9.810734
0.05209,-9.813455
0.07814,-9.814816
0.10418,-9.818897
0.13023,-9.82298
0.15628,-9.827061
0.18232,-9.831142
0.20837,-9.836585
0.23442,-9.842028
0.26046,-9.84883
0.28651,-9.854272
0.31256,-9.861075
0.3386,-9.867878
0.36465,-9.874681
0.3907,-9.881484
0.41674,-9.888287
0.44279,-9.896451
0.46884,-9.903254
0.49488,-9.911416
0.52093,-9.91958
0.54698,-9.927744
0.57302,-9.935907
0.59907,-9.944071
0.62512,-9.952234
0.65116,-9.959038
0.67721,-9.956316
0.70326,-9.954956
0.7293,-9.953595
0.75535,-9.953595
,
,
0.0,-9.782162
0.02604,-9.780801
0.05209,-9.780801
0.07814,-9.77944
0.10418,-9.77944
0.13023,-9.77808
0.15628,-9.776719
0.18232,-9.776719
0.20837,-9.775358
0.23442,-9.775358
0.26046,-9.775358
0.28651,-9.775358
0.31256,-9.775358
0.3386,-9.775358
0.36465,-9.775358
0.3907,-9.776719
0.41674,-9.776719
0.44279,-9.77808
0.46884,-9.77944
0.49488,-9.780801
0.52093,-9.787604
0.54698,-9.794407
0.57302,-9.799849
0.59907,-9.80393
0.62512,-9.808013
0.65116,-9.812095
0.67721,-9.814816
0.70326,-9.816176
0.7293,-9.817537
0.75535,-9.818897
,
,
0.0,-9.782162
0.02604,-9.780801
0.05209,-9.780801
0.07814,-9.77944
0.10418,-9.77944
0.13023,-9.77808
0.15628,-9.776719
0.18232,-9.776719
0.20837,-9.775358
0.23442,-9.775358
0.26046,-9.775358
0.28651,-9.775358
0.31256,-9.775358
0.3386,-9.775358
0.36465,-9.775358
0.3907,-9.776719
0.41674,-9.776719
0.44279,-9.77808
0.46884,-9.77944
0.49488,-9.77944
0.52093,-9.780801
0.54698,-9.782162
0.57302,-9.783523
0.59907,-9.783523
0.62512,-9.784883
0.65116,-9.786243
0.67721,-9.786243
0.70326,-9.786243
0.7293,-9.786243
0.75535,-9.787604
,
,
0.0,-9.670594
0.02604,-9.670594
0.05209,-9.670594
0.07814,-9.670594
0.10418,-9.674676
0.13023,-9.678758
0.15628,-9.682839
0.18232,-9.686921
0.20837,-9.691003
0.23442,-9.699166
0.26046,-9.70733
0.28651,-9.716854
0.31256,-9.725018
0.3386,-9.734542
0.36465,-9.742705
0.3907,-9.750868
0.41674,-9.759032
0.44279,-9.767196
0.46884,-9.773998
0.49488,-9.77944
0.52093,-9.780801
0.54698,-9.782162
0.57302,-9.783523
0.59907,-9.783523
0.62512,-9.784883
0.65116,-9.786243
0.67721,-9.786243
0.70326,-9.786243
0.7293,-9.786243
0.75535,-9.787604
,
,
0.0,-9.670594
0.02604,-9.670594
0.05209,-9.670594
0.07814,-9.670594
0.10418,-9.670594
0.13023,-9.670594
0.15628,-9.671954
0.18232,-9.680119
0.20837,-9.689642
0.23442,-9.693724
0.26046,-9.697805
0.28651,-9.701887
0.31256,-9.705969
0.3386,-9.708691
0.36465,-9.712772
0.3907,-9.716854
0.41674,-9.720935
0.44279,-9.723657
0.46884,-9.727738
0.49488,-9.73182
0.52093,-9.734542
0.54698,-9.738624
0.57302,-9.741344
0.59907,-9.744065
0.62512,-9.746786
0.65116,-9.749508
0.67721,-9.750868
0.70326,-9.752229
0.7293,-9.75359
0.75535,-9.75359
,
,
0.0,-9.658349
0.02604,-9.662431
0.05209,-9.666512
0.07814,-9.670594
0.10418,-9.670594
0.13023,-9.670594
0.15628,-9.669233
0.18232,-9.669233
0.20837,-9.669233
0.23442,-9.669233
0.26046,-9.669233
0.28651,-9.669233
0.31256,-9.670594
0.3386,-9.671954
0.36465,-9.673315
0.3907,-9.676037
0.41674,-9.677397
0.44279,-9.680119
0.46884,-9.682839
0.49488,-9.685561
0.52093,-9.688282
0.54698,-9.691003
0.57302,-9.693724
0.59907,-9.695085
0.62512,-9.696445
0.65116,-9.699166
0.67721,-9.699166
0.70326,-9.700527
0.7293,-9.700527
0.75535,-9.700527
,
,
0.0,-9.658349
0.02604,-9.654267
0.05209,-9.650186
0.07814,-9.646104
0.10418,-9.654267
0.13023,-9.662431
0.15628,-9.669233
0.18232,-9.669233
0.20837,-9.669233
0.23442,-9.669233
0.26046,-9.669233
0.28651,-9.669233
0.31256,-9.670594
0.3386,-9.671954
0.36465,-9.673315
0.3907,-9.676037
0.41674,-9.677397
0.44279,-9.680119
0.46884,-9.682839
0.49488,-9.685561
0.52093,-9.688282
0.54698,-9.691003
0.57302,-9.693724
0.59907,-9.695085
0.62512,-9.696445
0.65116,-9.699166
0.67721,-9.699166
0.70326,-9.700527
0.7293,-9.700527
0.75535,-9.700527
,
,
0.0,-9.627056
0.02604,-9.632499
0.05209,-9.6393
0.07814,-9.644743
0.10418,-9.640661
0.13023,-9.63522
0.15628,-9.631138
0.18232,-9.625695
0.20837,-9.621614
0.23442,-9.616171
0.26046,-9.610728
0.28651,-9.605287
0.31256,-9.608007
0.3386,-9.610728
0.36465,-9.613449
0.3907,-9.616171
0.41674,-9.617532
0.44279,-9.618892
0.46884,-9.620253
0.49488,-9.620253
0.52093,-9.621614
0.54698,-9.621614
0.57302,-9.621614
0.59907,-9.621614
0.62512,-9.621614
0.65116,-9.621614
0.67721,-9.621614
0.70326,-9.621614
0.7293,-9.621614
0.75535,-9.621614
,
,
0.0,-9.627056
0.02604,-9.621614
0.05209,-9.617532
0.07814,-9.613449
0.10418,-9.610728
0.13023,-9.608007
0.15628,-9.603926
0.18232,-9.601205
0.20837,-9.597123
0.23442,-9.599844
0.26046,-9.602566
0.28651,-9.605287
0.31256,-9.608007
0.3386,-9.610728
0.36465,-9.613449
0.3907,-9.616171
0.41674,-9.617532
0.44279,-9.618892
0.46884,-9.620253
0.49488,-9.620253
0.52093,-9.621614
0.54698,-9.621614
0.57302,-9.621614
0.59907,-9.621614
0.62512,-9.621614
0.65116,-9.621614
0.67721,-9.621614
0.70326,-9.621614
0.7293,-9.621614
0.75535,-9.621614
,
,
0.0,-9.588959
0.02604,-9.59032
0.05209,-9.591681
0.07814,-9.593041
0.10418,-9.593041
0.13023,-9.593041
0.15628,-9.593041
0.18232,-9.595762
0.20837,-9.597123
0.23442,-9.599844
0.26046,-9.602566
0.28651,-9.605287
0.31256,-9.599844
0.3386,-9.594401
0.36465,-9.588959
0.3907,-9.583517
0.41674,-9.578075
0.44279,-9.573993
0.46884,-9.568551
0.49488,-9.565829
0.52093,-9.564468
0.54698,-9.563108
0.57302,-9.561748
0.59907,-9.560387
0.62512,-9.559027
0.65116,-9.559027
0.67721,-9.557666
0.70326,-9.557666
0.7293,-9.556305
0.75535,-9.556305
,
,
0.0,-9.588959
0.02604,-9.588959
0.05209,-9.588959
0.07814,-9.59032
0.10418,-9.59032
0.13023,-9.591681
0.15628,-9.593041
0.18232,-9.595762
0.20837,-9.597123
0.23442,-9.593041
0.26046,-9.59032
0.28651,-9.586238
0.31256,-9.582156
0.3386,-9.579435
0.36465,-9.576715
0.3907,-9.573993
0.41674,-9.572633
0.44279,-9.569911
0.46884,-9.568551
0.49488,-9.563108
0.52093,-9.557666
0.54698,-9.553584
0.57302,-9.553584
0.59907,-9.552224
0.62512,-9.552224
0.65116,-9.552224
0.67721,-9.552224
0.70326,-9.552224
0.7293,-9.552224
0.75535,-9.552224
,
,
0.0,-9.586238
0.02604,-9.588959
0.05209,-9.588959
0.07814,-9.59032
0.10418,-9.59032
0.13023,-9.591681
0.15628,-9.593041
0.18232,-9.591681
0.20837,-9.588959
0.23442,-9.587599
0.26046,-9.586238
0.28651,-9.583517
0.31256,-9.580796
0.3386,-9.578075
0.36465,-9.573993
0.3907,-9.568551
0.41674,-9.564468
0.44279,-9.561748
0.46884,-9.557666
0.49488,-9.554945
0.52093,-9.553584
0.54698,-9.553584
0.57302,-9.553584
0.59907,-9.552224
0.62512,-9.552224
0.65116,-9.552224
0.67721,-9.552224
0.70326,-9.552224
0.7293,-9.552224
0.75535,-9.552224
,
,
0.0,-9.586238
0.02604,-9.582156
0.05209,-9.576715
0.07814,-9.569911
0.10418,-9.563108
0.13023,-9.556305
0.15628,-9.552224
0.18232,-9.553584
0.20837,-9.554945
0.23442,-9.554945
0.26046,-9.554945
0.28651,-9.556305
0.31256,-9.556305
0.3386,-9.556305
0.36465,-9.556305
0.3907,-9.556305
0.41674,-9.554945
0.44279,-9.554945
0.46884,-9.554945
0.49488,-9.554945
0.52093,-9.553584
0.54698,-9.552224
0.57302,-9.548142
0.59907,-9.544061
0.62512,-9.539978
0.65116,-9.537257
0.67721,-9.535896
0.70326,-9.535896
0.7293,-9.534536
0.75535,-9.534536
,
,
0.0,-9.548142
0.02604,-9.548142
0.05209,-9.548142
0.07814,-9.549503
0.10418,-9.550863
0.13023,-9.550863
0.15628,-9.552224
0.18232,-9.553584
0.20837,-9.554945
0.23442,-9.554945
0.26046,-9.554945
0.28651,-9.556305
0.31256,-9.556305
0.3386,-9.556305
0.36465,-9.556305
0.3907,-9.556305
0.41674,-9.554945
0.44279,-9.554945
0.46884,-9.554945
0.49488,-9.553584
0.52093,-9.550863
0.54698,-9.546782
0.57302,-9.544061
0.59907,-9.541339
0.62512,-9.539978
0.65116,-9.535896
0.67721,-9.533175
0.70326,-9.530454
0.7293,-9.529094
0.75535,-9.529094
,
,
0.0,-9.548142
0.02604,-9.548142
0.05209,-9.548142
0.07814,-9.549503
0.10418,-9.550863
0.13023,-9.550863
0.15628,-9.548142
0.18232,-9.541339
0.20837,-9.533175
0.23442,-9.526373
0.26046,-9.51957
0.28651,-9.518209
0.31256,-9.518209
0.3386,-9.51957
0.36465,-9.52093
0.3907,-9.52093
0.41674,-9.522291
0.44279,-9.522291
0.46884,-9.522291
0.49488,-9.523652
0.52093,-9.523652
0.54698,-9.525013
0.57302,-9.525013
0.59907,-9.525013
0.62512,-9.526373
0.65116,-9.526373
0.67721,-9.526373
0.70326,-9.526373
0.7293,-9.526373
0.75535,-9.526373
,
,
0.0,-9.508685
0.02604,-9.510046
0.05209,-9.510046
0.07814,-9.510046
0.10418,-9.511406
0.13023,-9.512767
0.15628,-9.512767
0.18232,-9.514128
0.20837,-9.515488
0.23442,-9.516849
0.26046,-9.516849
0.28651,-9.518209
0.31256,-9.518209
0.3386,-9.51957
0.36465,-9.52093
0.3907,-9.52093
0.41674,-9.522291
0.44279,-9.522291
0.46884,-9.522291
0.49488,-9.523652
0.52093,-9.523652
0.54698,-9.525013
0.57302,-9.525013
0.59907,-9.525013
0.62512,-9.526373
0.65116,-9.526373
0.67721,-9.526373
0.70326,-9.526373
0.7293,-9.526373
0.75535,-9.526373
,
,
0.0,-9.508685
0.02604,-9.510046
0.05209,-9.510046
0.07814,-9.510046
0.10418,-9.511406
0.13023,-9.512767
0.15628,-9.512767
0.18232,-9.514128
0.20837,-9.515488
0.23442,-9.516849
0.26046,-9.516849
0.28651,-9.511406
0.31256,-9.504603
0.3386,-9.497801
0.36465,-9.492358
0.3907,-9.485556
0.41674,-9.480113
0.44279,-9.47331
0.46884,-9.467868
0.49488,-9.463786
0.52093,-9.458344
0.54698,-9.454262
0.57302,-9.45018
0.59907,-9.452901
0.62512,-9.455623
0.65116,-9.458344
0.67721,-9.461065
0.70326,-9.462425
0.7293,-9.463786
0.75535,-9.463786
,
,
0.0,-9.455623
0.02604,-9.455623
0.05209,-9.455623
0.07814,-9.454262
0.10418,-9.454262
0.13023,-9.452901
0.15628,-9.451541
0.18232,-9.451541
0.20837,-9.45018
0.23442,-9.448819
0.26046,-9.447458
0.28651,-9.444738
0.31256,-9.443377
0.3386,-9.442017
0.36465,-9.440657
0.3907,-9.439296
0.41674,-9.436575
0.44279,-9.435214
0.46884,-9.439296
0.49488,-9.442017
0.52093,-9.444738
0.54698,-9.447458
0.57302,-9.45018
0.59907,-9.446098
0.62512,-9.443377
0.65116,-9.440657
0.67721,-9.437935
0.70326,-9.436575
0.7293,-9.436575
0.75535,-9.435214
,
,
0.0,-9.455623
0.02604,-9.455623
0.05209,-9.455623
0.07814,-9.454262
0.10418,-9.454262
0.13023,-9.452901
0.15628,-9.451541
0.18232,-9.451541
0.20837,-9.45018
0.23442,-9.448819
0.26046,-9.447458
0.28651,-9.444738
0.31256,-9.443377
0.3386,-9.442017
0.36465,-9.440657
0.3907,-9.439296
0.41674,-9.436575
0.44279,-9.435214
0.46884,-9.433853
0.49488,-9.432492
0.52093,-9.431132
0.54698,-9.429771
0.57302,-9.428411
0.59907,-9.428411
0.62512,-9.427051
0.65116,-9.427051
0.67721,-9.42569
0.70326,-9.42569
0.7293,-9.42569
0.75535,-9.42569
,
,
0.0,-9.40256
0.02604,-9.40256
0.05209,-9.40392
0.07814,-9.405281
0.10418,-9.406642
0.13023,-9.409363
0.15628,-9.410724
0.18232,-9.412085
0.20837,-9.413445
0.23442,-9.416166
0.26046,-9.417526
0.28651,-9.420247
0.31256,-9.422968
0.3386,-9.42569
0.36465,-9.427051
0.3907,-9.429771
0.41674,-9.432492
0.44279,-9.435214
0.46884,-9.433853
0.49488,-9.432492
0.52093,-9.431132
0.54698,-9.429771
0.57302,-9.428411
0.59907,-9.428411
0.62512,-9.427051
0.65116,-9.427051
0.67721,-9.42569
0.70326,-9.42569
0.7293,-9.42569
0.75535,-9.42569
,
,
0.0,-9.40256
0.02604,-9.401199
0.05209,-9.399838
0.07814,-9.399838
0.10418,-9.398478
0.13023,-9.398478
0.15628,-9.398478
0.18232,-9.398478
0.20837,-9.398478
0.23442,-9.398478
0.26046,-9.398478
0.28651,-9.398478
0.31256,-9.399838
0.3386,-9.401199
0.36465,-9.401199
0.3907,-9.40256
0.41674,-9.405281
0.44279,-9.406642
0.46884,-9.408002
0.49488,-9.409363
0.52093,-9.410724
0.54698,-9.413445
0.57302,-9.414805
0.59907,-9.416166
0.62512,-9.417526
0.65116,-9.418887
0.67721,-9.418887
0.70326,-9.420247
0.7293,-9.420247
0.75535,-9.420247
,
,
0.0,-9.359021
0.02604,-9.359021
0.05209,-9.360382
0.07814,-9.361743
0.10418,-9.364464
0.13023,-9.365824
0.15628,-9.365824
0.18232,-9.368546
0.20837,-9.371266
0.23442,-9.373987
0.26046,-9.376709
0.28651,-9.37943
0.31256,-9.380791
0.3386,-9.383512
0.36465,-9.386233
0.3907,-9.387594
0.41674,-9.388954
0.44279,-9.391675
0.46884,-9.393036
0.49488,-9.394396
0.52093,-9.395757
0.54698,-9.397118
0.57302,-9.398478
0.59907,-9.399838
0.62512,-9.399838
0.65116,-9.401199
0.67721,-9.401199
0.70326,-9.401199
0.7293,-9.40256
0.75535,-9.40256
,
,
0.0,-9.359021
0.02604,-9.359021
0.05209,-9.360382
0.07814,-9.361743
0.10418,-9.364464
0.13023,-9.365824
0.15628,-9.365824
0.18232,-9.367185
0.20837,-9.367185
0.23442,-9.368546
0.26046,-9.368546
0.28651,-9.367185
0.31256,-9.367185
0.3386,-9.365824
0.36465,-9.365824
0.3907,-9.364464
0.41674,-9.363103
0.44279,-9.361743
0.46884,-9.360382
0.49488,-9.359021
0.52093,-9.357661
0.54698,-9.3563
0.57302,-9.35358
0.59907,-9.352219
0.62512,-9.35358
0.65116,-9.35358
0.67721,-9.35358
0.70326,-9.35358
0.7293,-9.35358
0.75535,-9.35358
,
,
0.0,-9.350858
0.02604,-9.35358
0.05209,-9.3563
0.07814,-9.359021
0.10418,-9.361743
0.13023,-9.364464
0.15628,-9.365824
0.18232,-9.367185
0.20837,-9.367185
0.23442,-9.368546
0.26046,-9.368546
0.28651,-9.367185
0.31256,-9.367185
0.3386,-9.365824
0.36465,-9.365824
0.3907,-9.364464
0.41674,-9.363103
0.44279,-9.361743
0.46884,-9.360382
0.49488,-9.359021
0.52093,-9.357661
0.54698,-9.3563
0.57302,-9.35358
0.59907,-9.352219
0.62512,-9.352219
0.65116,-9.350858
0.67721,-9.349497
0.70326,-9.349497
0.7293,-9.348137
0.75535,-9.348137
,
,
0.0,-9.350858
0.02604,-9.348137
0.05209,-9.345415
0.07814,-9.342694
0.10418,-9.341333
0.13023,-9.338613
0.15628,-9.335892
0.18232,-9.334531
0.20837,-9.333171
0.23442,-9.33181
0.26046,-9.334531
0.28651,-9.337252
0.31256,-9.338613
0.3386,-9.341333
0.36465,-9.342694
0.3907,-9.344055
0.41674,-9.346776
0.44279,-9.348137
0.46884,-9.348137
0.49488,-9.349497
0.52093,-9.350858
0.54698,-9.350858
0.57302,-9.352219
0.59907,-9.352219
0.62512,-9.352219
0.65116,-9.350858
0.67721,-9.349497
0.70326,-9.349497
0.7293,-9.348137
0.75535,-9.348137
,
,
0.0,-9.342694
0.02604,-9.342694
0.05209,-9.339972
0.07814,-9.337252
0.10418,-9.333171
0.13023,-9.329089
0.15628,-9.326367
0.18232,-9.327728
0.20837,-9.329089
0.23442,-9.330449
0.26046,-9.329089
0.28651,-9.327728
0.31256,-9.326367
0.3386,-9.326367
0.36465,-9.325006
0.3907,-9.323647
0.41674,-9.323647
0.44279,-9.323647
0.46884,-9.323647
0.49488,-9.323647
0.52093,-9.323647
0.54698,-9.323647
0.57302,-9.323647
0.59907,-9.325006
0.62512,-9.325006
0.65116,-9.325006
0.67721,-9.325006
0.70326,-9.326367
0.7293,-9.326367
0.75535,-9.326367
,
,
