k,Energy (eV)
0.0,-10.571299
0.02605,-10.582184
0.0521,-10.594427
0.07815,-10.605312
0.1042,-10.616197
0.13025,-10.627082
0.1563,-10.637967
0.18235,-10.648851
0.2084,-10.658376
0.23445,-10.66926
0.2605,-10.678784
0.28655,-10.688309
0.3126,-10.696471
0.33865,-10.704635
0.3647,-10.712798
0.39074,-10.720962
0.41679,-10.727765
0.44284,-10.734568
0.46889,-10.740009
0.49494,-10.746814
0.52099,-10.750895
0.54704,-10.756337
0.57309,-10.760418
0.59914,-10.76314
0.62519,-10.767222
0.65124,-10.768583
0.67729,-10.771303
0.70334,-10.772664
0.72939,-10.774025
0.75544,-10.774025
,
,
0.0,-10.571299
0.02605,-10.560413
0.0521,-10.548168
0.07815,-10.537283
0.1042,-10.525038
0.13025,-10.514154
0.1563,-10.503269
0.18235,-10.495107
0.2084,-10.495107
0.23445,-10.495107
0.2605,-10.493746
0.28655,-10.493746
0.3126,-10.492385
0.33865,-10.492385
0.3647,-10.491024
0.39074,-10.489663
0.41679,-10.489663
0.44284,-10.488302
0.46889,-10.486941
0.49494,-10.485582
0.52099,-10.485582
0.54704,-10.484221
0.57309,-10.482861
0.59914,-10.482861
0.62519,-10.4815
0.65124,-10.4815
0.67729,-10.4815
0.70334,-10.4815
0.72939,-10.480139
0.75544,-10.480139
,
,
0.0,-10.492385
0.02605,-10.493746
0.0521,-10.493746
0.07815,-10.495107
0.1042,-10.495107
0.13025,-10.495107
0.1563,-10.495107
0.18235,-10.492385
0.2084,-10.4815
0.23445,-10.473337
0.2605,-10.470615
0.28655,-10.466533
0.3126,-10.463813
0.33865,-10.461091
0.3647,-10.457008
0.39074,-10.452928
0.41679,-10.450207
0.44284,-10.446126
0.46889,-10.443404
0.49494,-10.439322
0.52099,-10.436602
0.54704,-10.43388
0.57309,-10.431158
0.59914,-10.428436
0.62519,-10.425716
0.65124,-10.424356
0.67729,-10.422995
0.70334,-10.421635
0.72939,-10.421635
0.75544,-10.421635
,
,
0.0,-10.492385
0.02605,-10.491024
0.0521,-10.489663
0.07815,-10.488302
0.1042,-10.485582
0.13025,-10.484221
0.1563,-10.4815
0.18235,-10.478779
0.2084,-10.476057
0.23445,-10.471976
0.2605,-10.461091
0.28655,-10.451567
0.3126,-10.443404
0.33865,-10.43388
0.3647,-10.427076
0.39074,-10.418913
0.41679,-10.41211
0.44284,-10.405308
0.46889,-10.399864
0.49494,-10.394423
0.52099,-10.38898
0.54704,-10.384899
0.57309,-10.380816
0.59914,-10.378097
0.62519,-10.375375
0.65124,-10.374014
0.67729,-10.371292
0.70334,-10.371292
0.72939,-10.369932
0.75544,-10.369932
,
,
0.0,-10.194417
0.02605,-10.194417
0.0521,-10.194417
0.07815,-10.193056
0.1042,-10.191697
0.13025,-10.188975
0.1563,-10.186254
0.18235,-10.183532
0.2084,-10.179451
0.23445,-10.175369
0.2605,-10.171288
0.28655,-10.167206
0.3126,-10.161764
0.33865,-10.156321
0.3647,-10.149519
0.39074,-10.142716
0.41679,-10.135912
0.44284,-10.129109
0.46889,-10.122307
0.49494,-10.114144
0.52099,-10.10734
0.54704,-10.099176
0.57309,-10.091014
0.59914,-10.08285
0.62519,-10.076046
0.65124,-10.067883
0.67729,-10.061081
0.70334,-10.061081
0.72939,-10.061081
0.75544,-10.062442
,
,
0.0,-10.194417
0.02605,-10.194417
0.0521,-10.194417
0.07815,-10.193056
0.1042,-10.191697
0.13025,-10.188975
0.1563,-10.186254
0.18235,-10.183532
0.2084,-10.179451
0.23445,-10.175369
0.2605,-10.171288
0.28655,-10.167206
0.3126,-10.161764
0.33865,-10.156321
0.3647,-10.149519
0.39074,-10.142716
0.41679,-10.135912
0.44284,-10.129109
0.46889,-10.122307
0.49494,-10.114144
0.52099,-10.10734
0.54704,-10.099176
0.57309,-10.091014
0.59914,-10.08285
0.62519,-10.076046
0.65124,-10.067883
0.67729,-10.061081
0.70334,-10.055637
0.72939,-10.051557
0.75544,-10.050196
,
,
0.0,-10.013461
0.02605,-10.014821
0.0521,-10.014821
0.07815,-10.016182
0.1042,-10.016182
0.13025,-10.016182
0.1563,-10.016182
0.18235,-10.016182
0.2084,-10.014821
0.23445,-10.013461
0.2605,-10.0121
0.28655,-10.009378
0.3126,-10.008018
0.33865,-10.005298
0.3647,-10.006659
0.39074,-10.0121
0.41679,-10.017542
0.44284,-10.022985
0.46889,-10.028426
0.49494,-10.03387
0.52099,-10.037951
0.54704,-10.043393
0.57309,-10.047474
0.59914,-10.050196
0.62519,-10.054278
0.65124,-10.056998
0.67729,-10.05972
0.70334,-10.055637
0.72939,-10.051557
0.75544,-10.050196
,
,
0.0,-10.013461
0.02605,-10.0121
0.0521,-10.010739
0.07815,-10.009378
0.1042,-10.006659
0.13025,-10.005298
0.1563,-10.003937
0.18235,-10.001215
0.2084,-9.999854
0.23445,-9.997132
0.2605,-9.995773
0.28655,-9.994412
0.3126,-9.995773
0.33865,-10.001215
0.3647,-10.001215
0.39074,-9.998493
0.41679,-9.994412
0.44284,-9.99033
0.46889,-9.986249
0.49494,-9.982167
0.52099,-9.980806
0.54704,-9.980806
0.57309,-9.982167
0.59914,-9.982167
0.62519,-9.982167
0.65124,-9.982167
0.67729,-9.983528
0.70334,-9.983528
0.72939,-9.983528
0.75544,-9.983528
,
,
0.0,-9.959037
0.02605,-9.959037
0.0521,-9.960398
0.07815,-9.961759
0.1042,-9.964479
0.13025,-9.967201
0.1563,-9.969921
0.18235,-9.974004
0.2084,-9.978085
0.23445,-9.982167
0.2605,-9.986249
0.28655,-9.991691
0.3126,-9.991691
0.33865,-9.99033
0.3647,-9.98897
0.39074,-9.986249
0.41679,-9.984889
0.44284,-9.983528
0.46889,-9.982167
0.49494,-9.980806
0.52099,-9.979445
0.54704,-9.979445
0.57309,-9.978085
0.59914,-9.976726
0.62519,-9.976726
0.65124,-9.975365
0.67729,-9.975365
0.70334,-9.975365
0.72939,-9.978085
0.75544,-9.979445
,
,
0.0,-9.959037
0.02605,-9.957677
0.0521,-9.957677
0.07815,-9.957677
0.1042,-9.959037
0.13025,-9.960398
0.1563,-9.960398
0.18235,-9.961759
0.2084,-9.964479
0.23445,-9.96584
0.2605,-9.967201
0.28655,-9.96856
0.3126,-9.969921
0.33865,-9.972643
0.3647,-9.974004
0.39074,-9.975365
0.41679,-9.976726
0.44284,-9.978085
0.46889,-9.979445
0.49494,-9.979445
0.52099,-9.976726
0.54704,-9.972643
0.57309,-9.96856
0.59914,-9.964479
0.62519,-9.961759
0.65124,-9.961759
0.67729,-9.96856
0.70334,-9.974004
0.72939,-9.978085
0.75544,-9.979445
,
,
0.0,-9.813455
0.02605,-9.813455
0.0521,-9.814816
0.07815,-9.817537
0.1042,-9.820259
0.13025,-9.82434
0.1563,-9.828422
0.18235,-9.833863
0.2084,-9.839307
0.23445,-9.844748
0.2605,-9.850191
0.28655,-9.855633
0.3126,-9.862435
0.33865,-9.86924
0.3647,-9.876042
0.39074,-9.882844
0.41679,-9.891007
0.44284,-9.897812
0.46889,-9.905974
0.49494,-9.914138
0.52099,-9.922301
0.54704,-9.930465
0.57309,-9.938627
0.59914,-9.946793
0.62519,-9.954956
0.65124,-9.961759
0.67729,-9.96856
0.70334,-9.974004
0.72939,-9.975365
0.75544,-9.975365
,
,
0.0,-9.813455
0.02605,-9.813455
0.0521,-9.814816
0.07815,-9.817537
0.1042,-9.820259
0.13025,-9.82434
0.1563,-9.828422
0.18235,-9.833863
0.2084,-9.839307
0.23445,-9.844748
0.2605,-9.850191
0.28655,-9.855633
0.3126,-9.862435
0.33865,-9.86924
0.3647,-9.876042
0.39074,-9.882844
0.41679,-9.891007
0.44284,-9.897812
0.46889,-9.905974
0.49494,-9.914138
0.52099,-9.922301
0.54704,-9.930465
0.57309,-9.938627
0.59914,-9.946793
0.62519,-9.954956
0.65124,-9.957677
0.67729,-9.954956
0.70334,-9.953595
0.72939,-9.952234
0.75544,-9.952234
,
,
0.0,-9.782161
0.02605,-9.782161
0.0521,-9.782161
0.07815,-9.780802
0.1042,-9.779441
0.13025,-9.779441
0.1563,-9.77808
0.18235,-9.776719
0.2084,-9.776719
0.23445,-9.776719
0.2605,-9.775358
0.28655,-9.775358
0.3126,-9.776719
0.33865,-9.776719
0.3647,-9.776719
0.39074,-9.77808
0.41679,-9.77808
0.44284,-9.779441
0.46889,-9.779441
0.49494,-9.783522
0.52099,-9.790326
0.54704,-9.795768
0.57309,-9.80121
0.59914,-9.806652
0.62519,-9.810735
0.65124,-9.813455
0.67729,-9.816176
0.70334,-9.818898
0.72939,-9.820259
0.75544,-9.820259
,
,
0.0,-9.782161
0.02605,-9.782161
0.0521,-9.782161
0.07815,-9.780802
0.1042,-9.779441
0.13025,-9.779441
0.1563,-9.77808
0.18235,-9.776719
0.2084,-9.776719
0.23445,-9.776719
0.2605,-9.775358
0.28655,-9.775358
0.3126,-9.776719
0.33865,-9.776719
0.3647,-9.776719
0.39074,-9.77808
0.41679,-9.77808
0.44284,-9.779441
0.46889,-9.779441
0.49494,-9.780802
0.52099,-9.782161
0.54704,-9.783522
0.57309,-9.783522
0.59914,-9.784883
0.62519,-9.784883
0.65124,-9.786243
0.67729,-9.786243
0.70334,-9.787604
0.72939,-9.787604
0.75544,-9.787604
,
,
0.0,-9.671955
0.02605,-9.671955
0.0521,-9.671955
0.07815,-9.670594
0.1042,-9.674675
0.13025,-9.678758
0.1563,-9.68284
0.18235,-9.686921
0.2084,-9.691003
0.23445,-9.700527
0.2605,-9.708691
0.28655,-9.718214
0.3126,-9.727738
0.33865,-9.735902
0.3647,-9.744065
0.39074,-9.75223
0.41679,-9.760393
0.44284,-9.768557
0.46889,-9.776719
0.49494,-9.780802
0.52099,-9.782161
0.54704,-9.783522
0.57309,-9.783522
0.59914,-9.784883
0.62519,-9.784883
0.65124,-9.786243
0.67729,-9.786243
0.70334,-9.787604
0.72939,-9.787604
0.75544,-9.787604
,
,
0.0,-9.671955
0.02605,-9.671955
0.0521,-9.671955
0.07815,-9.670594
0.1042,-9.670594
0.13025,-9.670594
0.1563,-9.673316
0.18235,-9.681479
0.2084,-9.691003
0.23445,-9.693725
0.2605,-9.697805
0.28655,-9.701888
0.3126,-9.705969
0.33865,-9.708691
0.3647,-9.712773
0.39074,-9.716854
0.41679,-9.719575
0.44284,-9.723656
0.46889,-9.727738
0.49494,-9.73046
0.52099,-9.734541
0.54704,-9.737263
0.57309,-9.741345
0.59914,-9.744065
0.62519,-9.746786
0.65124,-9.749508
0.67729,-9.750869
0.70334,-9.75223
0.72939,-9.753589
0.75544,-9.753589
,
,
0.0,-9.658349
0.02605,-9.662431
0.0521,-9.666512
0.07815,-9.670594
0.1042,-9.670594
0.13025,-9.670594
0.1563,-9.670594
0.18235,-9.669233
0.2084,-9.669233
0.23445,-9.669233
0.2605,-9.669233
0.28655,-9.670594
0.3126,-9.670594
0.33865,-9.671955
0.3647,-9.674675
0.39074,-9.676036
0.41679,-9.678758
0.44284,-9.681479
0.46889,-9.684199
0.49494,-9.686921
0.52099,-9.689642
0.54704,-9.692364
0.57309,-9.693725
0.59914,-9.696445
0.62519,-9.697805
0.65124,-9.699166
0.67729,-9.700527
0.70334,-9.701888
0.72939,-9.701888
0.75544,-9.703249
,
,
0.0,-9.658349
0.02605,-9.654268
0.0521,-9.650186
0.07815,-9.648825
0.1042,-9.655627
0.13025,-9.665152
0.1563,-9.670594
0.18235,-9.669233
0.2084,-9.669233
0.23445,-9.669233
0.2605,-9.669233
0.28655,-9.670594
0.3126,-9.670594
0.33865,-9.671955
0.3647,-9.674675
0.39074,-9.676036
0.41679,-9.678758
0.44284,-9.681479
0.46889,-9.684199
0.49494,-9.686921
0.52099,-9.689642
0.54704,-9.692364
0.57309,-9.693725
0.59914,-9.696445
0.62519,-9.697805
0.65124,-9.699166
0.67729,-9.700527
0.70334,-9.701888
0.72939,-9.701888
0.75544,-9.703249
,
,
0.0,-9.628416
0.02605,-9.633859
0.0521,-9.640661
0.07815,-9.644744
0.1042,-9.640661
0.13025,-9.63522
0.1563,-9.631138
0.18235,-9.625694
0.2084,-9.621614
0.23445,-9.61617
0.2605,-9.610728
0.28655,-9.606647
0.3126,-9.609368
0.33865,-9.612089
0.3647,-9.614811
0.39074,-9.617531
0.41679,-9.618892
0.44284,-9.620253
0.46889,-9.621614
0.49494,-9.621614
0.52099,-9.622974
0.54704,-9.622974
0.57309,-9.622974
0.59914,-9.622974
0.62519,-9.622974
0.65124,-9.622974
0.67729,-9.622974
0.70334,-9.622974
0.72939,-9.622974
0.75544,-9.622974
,
,
0.0,-9.628416
0.02605,-9.622974
0.0521,-9.618892
0.07815,-9.61617
0.1042,-9.612089
0.13025,-9.609368
0.1563,-9.605287
0.18235,-9.601205
0.2084,-9.598483
0.23445,-9.601205
0.2605,-9.603927
0.28655,-9.606647
0.3126,-9.609368
0.33865,-9.612089
0.3647,-9.614811
0.39074,-9.617531
0.41679,-9.618892
0.44284,-9.620253
0.46889,-9.621614
0.49494,-9.621614
0.52099,-9.622974
0.54704,-9.622974
0.57309,-9.622974
0.59914,-9.622974
0.62519,-9.622974
0.65124,-9.622974
0.67729,-9.622974
0.70334,-9.622974
0.72939,-9.622974
0.75544,-9.622974
,
,
0.0,-9.588959
0.02605,-9.588959
0.0521,-9.591681
0.07815,-9.591681
0.1042,-9.593041
0.13025,-9.593041
0.1563,-9.594402
0.18235,-9.595763
0.2084,-9.598483
0.23445,-9.601205
0.2605,-9.603927
0.28655,-9.605287
0.3126,-9.599844
0.33865,-9.594402
0.3647,-9.588959
0.39074,-9.583517
0.41679,-9.578074
0.44284,-9.572633
0.46889,-9.56855
0.49494,-9.56583
0.52099,-9.564469
0.54704,-9.563108
0.57309,-9.561748
0.59914,-9.560387
0.62519,-9.559026
0.65124,-9.557666
0.67729,-9.557666
0.70334,-9.556306
0.72939,-9.556306
0.75544,-9.556306
,
,
0.0,-9.588959
0.02605,-9.588959
0.0521,-9.588959
0.07815,-9.59032
0.1042,-9.59032
0.13025,-9.591681
0.1563,-9.594402
0.18235,-9.595763
0.2084,-9.598483
0.23445,-9.594402
0.2605,-9.59032
0.28655,-9.586239
0.3126,-9.582156
0.33865,-9.578074
0.3647,-9.576714
0.39074,-9.573994
0.41679,-9.572633
0.44284,-9.569911
0.46889,-9.567189
0.49494,-9.563108
0.52099,-9.557666
0.54704,-9.552224
0.57309,-9.552224
0.59914,-9.552224
0.62519,-9.550863
0.65124,-9.550863
0.67729,-9.550863
0.70334,-9.550863
0.72939,-9.550863
0.75544,-9.550863
,
,
0.0,-9.584878
0.02605,-9.588959
0.0521,-9.588959
0.07815,-9.59032
0.1042,-9.59032
0.13025,-9.591681
0.1563,-9.591681
0.18235,-9.59032
0.2084,-9.588959
0.23445,-9.587598
0.2605,-9.584878
0.28655,-9.583517
0.3126,-9.580796
0.33865,-9.578074
0.3647,-9.573994
0.39074,-9.569911
0.41679,-9.56583
0.44284,-9.561748
0.46889,-9.557666
0.49494,-9.553584
0.52099,-9.553584
0.54704,-9.552224
0.57309,-9.552224
0.59914,-9.552224
0.62519,-9.550863
0.65124,-9.550863
0.67729,-9.550863
0.70334,-9.550863
0.72939,-9.550863
0.75544,-9.550863
,
,
0.0,-9.584878
0.02605,-9.580796
0.0521,-9.575355
0.07815,-9.56855
0.1042,-9.563108
0.13025,-9.554945
0.1563,-9.550863
0.18235,-9.552224
0.2084,-9.553584
0.23445,-9.553584
0.2605,-9.554945
0.28655,-9.554945
0.3126,-9.554945
0.33865,-9.554945
0.3647,-9.554945
0.39074,-9.554945
0.41679,-9.554945
0.44284,-9.553584
0.46889,-9.553584
0.49494,-9.553584
0.52099,-9.553584
0.54704,-9.552224
0.57309,-9.548141
0.59914,-9.5427
0.62519,-9.539978
0.65124,-9.537258
0.67729,-9.535897
0.70334,-9.534536
0.72939,-9.534536
0.75544,-9.534536
,
,
0.0,-9.546782
0.02605,-9.546782
0.0521,-9.548141
0.07815,-9.548141
0.1042,-9.549502
0.13025,-9.550863
0.1563,-9.550863
0.18235,-9.552224
0.2084,-9.553584
0.23445,-9.553584
0.2605,-9.554945
0.28655,-9.554945
0.3126,-9.554945
0.33865,-9.554945
0.3647,-9.554945
0.39074,-9.554945
0.41679,-9.554945
0.44284,-9.553584
0.46889,-9.553584
0.49494,-9.553584
0.52099,-9.550863
0.54704,-9.546782
0.57309,-9.544061
0.59914,-9.541339
0.62519,-9.538617
0.65124,-9.535897
0.67729,-9.533175
0.70334,-9.530454
0.72939,-9.529094
0.75544,-9.529094
,
,
0.0,-9.546782
0.02605,-9.546782
0.0521,-9.548141
0.07815,-9.548141
0.1042,-9.549502
0.13025,-9.550863
0.1563,-9.548141
0.18235,-9.541339
0.2084,-9.533175
0.23445,-9.526373
0.2605,-9.519569
0.28655,-9.518209
0.3126,-9.518209
0.33865,-9.519569
0.3647,-9.519569
0.39074,-9.52093
0.41679,-9.52093
0.44284,-9.522291
0.46889,-9.522291
0.49494,-9.522291
0.52099,-9.523652
0.54704,-9.523652
0.57309,-9.523652
0.59914,-9.525013
0.62519,-9.525013
0.65124,-9.525013
0.67729,-9.525013
0.70334,-9.526373
0.72939,-9.526373
0.75544,-9.526373
,
,
0.0,-9.508684
0.02605,-9.510045
0.0521,-9.510045
0.07815,-9.510045
0.1042,-9.511406
0.13025,-9.512767
0.1563,-9.512767
0.18235,-9.514128
0.2084,-9.515489
0.23445,-9.515489
0.2605,-9.51685
0.28655,-9.518209
0.3126,-9.518209
0.33865,-9.519569
0.3647,-9.519569
0.39074,-9.52093
0.41679,-9.52093
0.44284,-9.522291
0.46889,-9.522291
0.49494,-9.522291
0.52099,-9.523652
0.54704,-9.523652
0.57309,-9.523652
0.59914,-9.525013
0.62519,-9.525013
0.65124,-9.525013
0.67729,-9.525013
0.70334,-9.526373
0.72939,-9.526373
0.75544,-9.526373
,
,
0.0,-9.508684
0.02605,-9.510045
0.0521,-9.510045
0.07815,-9.510045
0.1042,-9.511406
0.13025,-9.512767
0.1563,-9.512767
0.18235,-9.514128
0.2084,-9.515489
0.23445,-9.515489
0.2605,-9.51685
0.28655,-9.512767
0.3126,-9.505964
0.33865,-9.499161
0.3647,-9.492358
0.39074,-9.485556
0.41679,-9.480112
0.44284,-9.47467
0.46889,-9.469228
0.49494,-9.463786
0.52099,-9.459703
0.54704,-9.454262
0.57309,-9.45154
0.59914,-9.454262
0.62519,-9.456984
0.65124,-9.459703
0.67729,-9.461064
0.70334,-9.462425
0.72939,-9.463786
0.75544,-9.463786
,
,
0.0,-9.456984
0.02605,-9.456984
0.0521,-9.455623
0.07815,-9.455623
0.1042,-9.454262
0.13025,-9.454262
0.1563,-9.452901
0.18235,-9.45154
0.2084,-9.450179
0.23445,-9.44882
0.2605,-9.447459
0.28655,-9.446098
0.3126,-9.444738
0.33865,-9.443377
0.3647,-9.440656
0.39074,-9.439297
0.41679,-9.437936
0.44284,-9.436575
0.46889,-9.439297
0.49494,-9.442017
0.52099,-9.444738
0.54704,-9.447459
0.57309,-9.450179
0.59914,-9.447459
0.62519,-9.443377
0.65124,-9.442017
0.67729,-9.439297
0.70334,-9.437936
0.72939,-9.436575
0.75544,-9.436575
,
,
0.0,-9.456984
0.02605,-9.456984
0.0521,-9.455623
0.07815,-9.455623
0.1042,-9.454262
0.13025,-9.454262
0.1563,-9.452901
0.18235,-9.45154
0.2084,-9.450179
0.23445,-9.44882
0.2605,-9.447459
0.28655,-9.446098
0.3126,-9.444738
0.33865,-9.443377
0.3647,-9.440656
0.39074,-9.439297
0.41679,-9.437936
0.44284,-9.436575
0.46889,-9.435214
0.49494,-9.433853
0.52099,-9.432492
0.54704,-9.431131
0.57309,-9.429772
0.59914,-9.428411
0.62519,-9.428411
0.65124,-9.427051
0.67729,-9.427051
0.70334,-9.42569
0.72939,-9.42569
0.75544,-9.42569
,
,
0.0,-9.402559
0.02605,-9.40392
0.0521,-9.405281
0.07815,-9.406642
0.1042,-9.408003
0.13025,-9.409364
0.1563,-9.410723
0.18235,-9.412084
0.2084,-9.414805
0.23445,-9.416166
0.2605,-9.418887
0.28655,-9.420248
0.3126,-9.422968
0.33865,-9.42569
0.3647,-9.428411
0.39074,-9.431131
0.41679,-9.433853
0.44284,-9.436575
0.46889,-9.435214
0.49494,-9.433853
0.52099,-9.432492
0.54704,-9.431131
0.57309,-9.429772
0.59914,-9.428411
0.62519,-9.428411
0.65124,-9.427051
0.67729,-9.427051
0.70334,-9.42569
0.72939,-9.42569
0.75544,-9.42569
,
,
0.0,-9.402559
0.02605,-9.401198
0.0521,-9.399839
0.07815,-9.399839
0.1042,-9.398479
0.13025,-9.398479
0.1563,-9.398479
0.18235,-9.398479
0.2084,-9.398479
0.23445,-9.398479
0.2605,-9.398479
0.28655,-9.399839
0.3126,-9.399839
0.33865,-9.401198
0.3647,-9.402559
0.39074,-9.40392
0.41679,-9.405281
0.44284,-9.408003
0.46889,-9.409364
0.49494,-9.410723
0.52099,-9.413445
0.54704,-9.414805
0.57309,-9.416166
0.59914,-9.417526
0.62519,-9.418887
0.65124,-9.420248
0.67729,-9.421607
0.70334,-9.421607
0.72939,-9.421607
0.75544,-9.422968
,
,
0.0,-9.361742
0.02605,-9.361742
0.0521,-9.363103
0.07815,-9.364464
0.1042,-9.365824
0.13025,-9.367185
0.1563,-9.368546
0.18235,-9.371267
0.2084,-9.373987
0.23445,-9.375348
0.2605,-9.37807
0.28655,-9.380792
0.3126,-9.383512
0.33865,-9.384872
0.3647,-9.387594
0.39074,-9.388954
0.41679,-9.391675
0.44284,-9.393036
0.46889,-9.394396
0.49494,-9.397118
0.52099,-9.398479
0.54704,-9.398479
0.57309,-9.399839
0.59914,-9.401198
0.62519,-9.402559
0.65124,-9.402559
0.67729,-9.40392
0.70334,-9.40392
0.72939,-9.40392
0.75544,-9.40392
,
,
0.0,-9.361742
0.02605,-9.361742
0.0521,-9.363103
0.07815,-9.364464
0.1042,-9.365824
0.13025,-9.367185
0.1563,-9.368546
0.18235,-9.368546
0.2084,-9.369906
0.23445,-9.369906
0.2605,-9.369906
0.28655,-9.369906
0.3126,-9.368546
0.33865,-9.368546
0.3647,-9.367185
0.39074,-9.365824
0.41679,-9.364464
0.44284,-9.363103
0.46889,-9.361742
0.49494,-9.360383
0.52099,-9.359022
0.54704,-9.357661
0.57309,-9.3563
0.59914,-9.354939
0.62519,-9.354939
0.65124,-9.354939
0.67729,-9.354939
0.70334,-9.354939
0.72939,-9.354939
0.75544,-9.354939
,
,
0.0,-9.352218
0.02605,-9.354939
0.0521,-9.357661
0.07815,-9.360383
0.1042,-9.363103
0.13025,-9.365824
0.1563,-9.368546
0.18235,-9.368546
0.2084,-9.369906
0.23445,-9.369906
0.2605,-9.369906
0.28655,-9.369906
0.3126,-9.368546
0.33865,-9.368546
0.3647,-9.367185
0.39074,-9.365824
0.41679,-9.364464
0.44284,-9.363103
0.46889,-9.361742
0.49494,-9.360383
0.52099,-9.359022
0.54704,-9.357661
0.57309,-9.3563
0.59914,-9.354939
0.62519,-9.353579
0.65124,-9.352218
0.67729,-9.350859
0.70334,-9.350859
0.72939,-9.349498
0.75544,-9.349498
,
,
0.0,-9.352218
0.02605,-9.349498
0.0521,-9.346776
0.07815,-9.345415
0.1042,-9.342693
0.13025,-9.339973
0.1563,-9.338613
0.18235,-9.335892
0.2084,-9.334531
0.23445,-9.334531
0.2605,-9.335892
0.28655,-9.338613
0.3126,-9.341334
0.33865,-9.342693
0.3647,-9.344054
0.39074,-9.346776
0.41679,-9.348137
0.44284,-9.349498
0.46889,-9.350859
0.49494,-9.350859
0.52099,-9.352218
0.54704,-9.353579
0.57309,-9.353579
0.59914,-9.353579
0.62519,-9.353579
0.65124,-9.352218
0.67729,-9.350859
0.70334,-9.350859
0.72939,-9.349498
0.75544,-9.349498
,
,
0.0,-9.344054
0.02605,-9.344054
0.0521,-9.341334
0.07815,-9.338613
0.1042,-9.335892
0.13025,-9.331811
0.1563,-9.327728
0.18235,-9.329089
0.2084,-9.331811
0.23445,-9.33317
0.2605,-9.33045
0.28655,-9.329089
0.3126,-9.329089
0.33865,-9.327728
0.3647,-9.326367
0.39074,-9.326367
0.41679,-9.325006
0.44284,-9.325006
0.46889,-9.325006
0.49494,-9.325006
0.52099,-9.325006
0.54704,-9.325006
0.57309,-9.326367
0.59914,-9.326367
0.62519,-9.326367
0.65124,-9.326367
0.67729,-9.327728
0.70334,-9.327728
0.72939,-9.327728
0.75544,-9.327728
,
,
0.0,-9.344054
0.02605,-9.344054
0.0521,-9.341334
0.07815,-9.338613
0.1042,-9.335892
0.13025,-9.331811
0.1563,-9.327728
0.18235,-9.323646
